3996.70104	0.96305
3994.64724	0.96311
3992.59344	0.96328
3990.53964	0.96345
3988.48583	0.96340
3986.43203	0.96299
3984.37823	0.96251
3982.32442	0.96238
3980.27062	0.96263
3978.21682	0.96294
3976.16301	0.96296
3974.10921	0.96263
3972.05541	0.96242
3970.00160	0.96291
3967.94780	0.96362
3965.89400	0.96364
3963.84019	0.96324
3961.78639	0.96299
3959.73259	0.96288
3957.67878	0.96290
3955.62498	0.96290
3953.57118	0.96241
3951.51737	0.96191
3949.46357	0.96218
3947.40977	0.96271
3945.35596	0.96317
3943.30216	0.96384
3941.24836	0.96410
3939.19455	0.96368
3937.14075	0.96333
3935.08695	0.96318
3933.03315	0.96310
3930.97934	0.96341
3928.92554	0.96386
3926.87174	0.96405
3924.81793	0.96381
3922.76413	0.96315
3920.71033	0.96291
3918.65652	0.96343
3916.60272	0.96379
3914.54892	0.96368
3912.49511	0.96360
3910.44131	0.96347
3908.38751	0.96318
3906.33370	0.96319
3904.27990	0.96358
3902.22610	0.96394
3900.17229	0.96438
3898.11849	0.96467
3896.06469	0.96446
3894.01088	0.96406
3891.95708	0.96407
3889.90328	0.96435
3887.84947	0.96403
3885.79567	0.96353
3883.74187	0.96363
3881.68807	0.96425
3879.63426	0.96479
3877.58046	0.96457
3875.52666	0.96418
3873.47285	0.96435
3871.41905	0.96449
3869.36525	0.96400
3867.31144	0.96346
3865.25764	0.96329
3863.20384	0.96340
3861.15003	0.96341
3859.09623	0.96350
3857.04243	0.96403
3854.98862	0.96500
3852.93482	0.96571
3850.88102	0.96520
3848.82721	0.96456
3846.77341	0.96417
3844.71961	0.96405
3842.66580	0.96424
3840.61200	0.96432
3838.55820	0.96428
3836.50439	0.96456
3834.45059	0.96472
3832.39679	0.96439
3830.34298	0.96361
3828.28918	0.96331
3826.23538	0.96372
3824.18158	0.96384
3822.12777	0.96367
3820.07397	0.96372
3818.02017	0.96375
3815.96636	0.96411
3813.91256	0.96485
3811.85876	0.96524
3809.80495	0.96541
3807.75115	0.96585
3805.69735	0.96558
3803.64354	0.96399
3801.58974	0.96279
3799.53594	0.96328
3797.48213	0.96430
3795.42833	0.96496
3793.37453	0.96525
3791.32072	0.96555
3789.26692	0.96583
3787.21312	0.96572
3785.15931	0.96538
3783.10551	0.96512
3781.05171	0.96492
3778.99790	0.96475
3776.94410	0.96441
3774.89030	0.96411
3772.83650	0.96402
3770.78269	0.96420
3768.72889	0.96499
3766.67509	0.96575
3764.62128	0.96576
3762.56748	0.96566
3760.51368	0.96592
3758.45987	0.96663
3756.40607	0.96759
3754.35227	0.96814
3752.29846	0.96818
3750.24466	0.96744
3748.19086	0.96635
3746.13705	0.96622
3744.08325	0.96709
3742.02945	0.96743
3739.97564	0.96710
3737.92184	0.96676
3735.86804	0.96662
3733.81423	0.96701
3731.76043	0.96699
3729.70663	0.96628
3727.65282	0.96567
3725.59902	0.96545
3723.54522	0.96497
3721.49141	0.96362
3719.43761	0.96148
3717.38381	0.95942
3715.33001	0.95788
3713.27620	0.95574
3711.22240	0.95201
3709.16860	0.94740
3707.11479	0.94284
3705.06099	0.93866
3703.00719	0.93420
3700.95338	0.92880
3698.89958	0.92433
3696.84578	0.92234
3694.79197	0.92289
3692.73817	0.92510
3690.68437	0.92813
3688.63056	0.93182
3686.57676	0.93448
3684.52296	0.93593
3682.46915	0.93689
3680.41535	0.93736
3678.36155	0.93781
3676.30774	0.93814
3674.25394	0.93713
3672.20014	0.93560
3670.14633	0.93436
3668.09253	0.93339
3666.03873	0.93236
3663.98492	0.93113
3661.93112	0.92987
3659.87732	0.92859
3657.82352	0.92745
3655.76971	0.92630
3653.71591	0.92517
3651.66211	0.92468
3649.60830	0.92460
3647.55450	0.92375
3645.50070	0.92254
3643.44689	0.92181
3641.39309	0.92138
3639.33929	0.92083
3637.28548	0.92003
3635.23168	0.91899
3633.17788	0.91738
3631.12407	0.91496
3629.07027	0.91186
3627.01647	0.90980
3624.96266	0.90870
3622.90886	0.90698
3620.85506	0.90504
3618.80125	0.90492
3616.74745	0.90709
3614.69365	0.90878
3612.63984	0.90904
3610.58604	0.90928
3608.53224	0.91040
3606.47844	0.91180
3604.42463	0.91237
3602.37083	0.91224
3600.31703	0.91209
3598.26322	0.91225
3596.20942	0.91297
3594.15562	0.91362
3592.10181	0.91353
3590.04801	0.91365
3587.99421	0.91403
3585.94040	0.91324
3583.88660	0.91204
3581.83280	0.91141
3579.77899	0.91123
3577.72519	0.91125
3575.67139	0.91099
3573.61758	0.91028
3571.56378	0.90925
3569.50998	0.90837
3567.45617	0.90847
3565.40237	0.90860
3563.34857	0.90754
3561.29476	0.90620
3559.24096	0.90506
3557.18716	0.90408
3555.13335	0.90343
3553.07955	0.90320
3551.02575	0.90299
3548.97195	0.90223
3546.91814	0.90101
3544.86434	0.89998
3542.81054	0.89978
3540.75673	0.90033
3538.70293	0.90074
3536.64913	0.90026
3534.59532	0.89928
3532.54152	0.89886
3530.48772	0.89924
3528.43391	0.89972
3526.38011	0.89974
3524.32631	0.89962
3522.27250	0.89952
3520.21870	0.89921
3518.16490	0.89889
3516.11109	0.89888
3514.05729	0.89912
3512.00349	0.89934
3509.94968	0.89951
3507.89588	0.89958
3505.84208	0.89947
3503.78827	0.89943
3501.73447	0.89942
3499.68067	0.89923
3497.62687	0.89901
3495.57306	0.89869
3493.51926	0.89823
3491.46546	0.89812
3489.41165	0.89813
3487.35785	0.89737
3485.30405	0.89655
3483.25024	0.89682
3481.19644	0.89751
3479.14264	0.89752
3477.08883	0.89687
3475.03503	0.89628
3472.98123	0.89619
3470.92742	0.89616
3468.87362	0.89568
3466.81982	0.89471
3464.76601	0.89383
3462.71221	0.89330
3460.65841	0.89281
3458.60460	0.89262
3456.55080	0.89274
3454.49700	0.89268
3452.44319	0.89255
3450.38939	0.89201
3448.33559	0.89078
3446.28178	0.88981
3444.22798	0.88956
3442.17418	0.88939
3440.12038	0.88911
3438.06657	0.88876
3436.01277	0.88864
3433.95897	0.88863
3431.90516	0.88818
3429.85136	0.88735
3427.79756	0.88648
3425.74375	0.88580
3423.68995	0.88502
3421.63615	0.88375
3419.58234	0.88252
3417.52854	0.88187
3415.47474	0.88183
3413.42093	0.88214
3411.36713	0.88194
3409.31333	0.88110
3407.25952	0.88049
3405.20572	0.88006
3403.15192	0.87918
3401.09811	0.87852
3399.04431	0.87880
3396.99051	0.87969
3394.93670	0.88055
3392.88290	0.88074
3390.82910	0.88066
3388.77529	0.88109
3386.72149	0.88156
3384.66769	0.88138
3382.61389	0.88088
3380.56008	0.88083
3378.50628	0.88123
3376.45248	0.88181
3374.39867	0.88246
3372.34487	0.88301
3370.29107	0.88349
3368.23726	0.88386
3366.18346	0.88394
3364.12966	0.88383
3362.07585	0.88385
3360.02205	0.88415
3357.96825	0.88439
3355.91444	0.88458
3353.86064	0.88504
3351.80684	0.88551
3349.75303	0.88577
3347.69923	0.88595
3345.64543	0.88616
3343.59162	0.88657
3341.53782	0.88718
3339.48402	0.88733
3337.43021	0.88704
3335.37641	0.88725
3333.32261	0.88764
3331.26881	0.88767
3329.21500	0.88790
3327.16120	0.88826
3325.10740	0.88840
3323.05359	0.88867
3320.99979	0.88895
3318.94599	0.88911
3316.89218	0.88947
3314.83838	0.89004
3312.78458	0.89042
3310.73077	0.89061
3308.67697	0.89111
3306.62317	0.89179
3304.56936	0.89175
3302.51556	0.89128
3300.46176	0.89144
3298.40795	0.89169
3296.35415	0.89170
3294.30035	0.89216
3292.24654	0.89277
3290.19274	0.89324
3288.13894	0.89381
3286.08513	0.89427
3284.03133	0.89456
3281.97753	0.89457
3279.92372	0.89445
3277.86992	0.89479
3275.81612	0.89535
3273.76232	0.89571
3271.70851	0.89600
3269.65471	0.89600
3267.60091	0.89586
3265.54710	0.89610
3263.49330	0.89629
3261.43950	0.89639
3259.38569	0.89712
3257.33189	0.89824
3255.27809	0.89891
3253.22428	0.89912
3251.17048	0.89917
3249.11668	0.89907
3247.06287	0.89902
3245.00907	0.89908
3242.95527	0.89912
3240.90146	0.89933
3238.84766	0.89991
3236.79386	0.90084
3234.74005	0.90164
3232.68625	0.90170
3230.63245	0.90158
3228.57864	0.90205
3226.52484	0.90291
3224.47104	0.90381
3222.41724	0.90442
3220.36343	0.90454
3218.30963	0.90464
3216.25583	0.90554
3214.20202	0.90666
3212.14822	0.90689
3210.09442	0.90699
3208.04061	0.90781
3205.98681	0.90872
3203.93301	0.90926
3201.87920	0.90962
3199.82540	0.91017
3197.77160	0.91093
3195.71779	0.91128
3193.66399	0.91113
3191.61019	0.91087
3189.55638	0.91088
3187.50258	0.91121
3185.44878	0.91186
3183.39497	0.91279
3181.34117	0.91359
3179.28737	0.91394
3177.23356	0.91408
3175.17976	0.91449
3173.12596	0.91548
3171.07215	0.91675
3169.01835	0.91761
3166.96455	0.91804
3164.91075	0.91835
3162.85694	0.91836
3160.80314	0.91839
3158.74934	0.91902
3156.69553	0.92007
3154.64173	0.92093
3152.58793	0.92120
3150.53412	0.92129
3148.48032	0.92172
3146.42652	0.92204
3144.37271	0.92232
3142.31891	0.92296
3140.26511	0.92355
3138.21130	0.92406
3136.15750	0.92450
3134.10370	0.92489
3132.04989	0.92554
3129.99609	0.92623
3127.94229	0.92653
3125.88848	0.92676
3123.83468	0.92713
3121.78088	0.92742
3119.72707	0.92795
3117.67327	0.92862
3115.61947	0.92879
3113.56566	0.92870
3111.51186	0.92890
3109.45806	0.92942
3107.40426	0.93017
3105.35045	0.93076
3103.29665	0.93093
3101.24285	0.93105
3099.18904	0.93117
3097.13524	0.93093
3095.08144	0.93072
3093.02763	0.93101
3090.97383	0.93164
3088.92003	0.93230
3086.86622	0.93264
3084.81242	0.93271
3082.75862	0.93272
3080.70481	0.93288
3078.65101	0.93349
3076.59721	0.93437
3074.54340	0.93516
3072.48960	0.93570
3070.43580	0.93592
3068.38199	0.93601
3066.32819	0.93604
3064.27439	0.93590
3062.22058	0.93601
3060.16678	0.93653
3058.11298	0.93702
3056.05918	0.93723
3054.00537	0.93735
3051.95157	0.93753
3049.89777	0.93766
3047.84396	0.93796
3045.79016	0.93862
3043.73636	0.93931
3041.68255	0.93992
3039.62875	0.94032
3037.57495	0.94031
3035.52114	0.94026
3033.46734	0.94053
3031.41354	0.94096
3029.35973	0.94120
3027.30593	0.94121
3025.25213	0.94128
3023.19832	0.94165
3021.14452	0.94204
3019.09072	0.94229
3017.03691	0.94260
3014.98311	0.94292
3012.92931	0.94343
3010.87550	0.94407
3008.82170	0.94413
3006.76790	0.94382
3004.71409	0.94384
3002.66029	0.94404
3000.60649	0.94403
2998.55269	0.94402
2996.49888	0.94400
2994.44508	0.94373
2992.39128	0.94337
2990.33747	0.94323
2988.28367	0.94326
2986.22987	0.94325
2984.17606	0.94306
2982.12226	0.94259
2980.06846	0.94205
2978.01465	0.94173
2975.96085	0.94139
2973.90705	0.94073
2971.85324	0.93959
2969.79944	0.93813
2967.74564	0.93665
2965.69183	0.93528
2963.63803	0.93407
2961.58423	0.93277
2959.53042	0.93145
2957.47662	0.93055
2955.42282	0.92977
2953.36901	0.92864
2951.31521	0.92736
2949.26141	0.92617
2947.20761	0.92485
2945.15380	0.92276
2943.10000	0.91908
2941.04620	0.91361
2938.99239	0.90665
2936.93859	0.89829
2934.88479	0.88844
2932.83098	0.87705
2930.77718	0.86364
2928.72338	0.84759
2926.66957	0.82851
2924.61577	0.80556
2922.56197	0.77810
2920.50816	0.74750
2918.45436	0.71753
2916.40056	0.69502
2914.34675	0.68791
2912.29295	0.69840
2910.23915	0.72009
2908.18534	0.74401
2906.13154	0.76519
2904.07774	0.78240
2902.02393	0.79556
2899.97013	0.80549
2897.91633	0.81374
2895.86252	0.82148
2893.80872	0.82915
2891.75492	0.83683
2889.70112	0.84457
2887.64731	0.85228
2885.59351	0.85989
2883.53971	0.86755
2881.48590	0.87520
2879.43210	0.88255
2877.37830	0.88956
2875.32449	0.89575
2873.27069	0.90040
2871.21689	0.90359
2869.16308	0.90585
2867.10928	0.90695
2865.05548	0.90595
2863.00167	0.90216
2860.94787	0.89479
2858.89407	0.88255
2856.84026	0.86362
2854.78646	0.83528
2852.73266	0.79622
2850.67885	0.75255
2848.62505	0.72040
2846.57125	0.71470
2844.51744	0.73465
2842.46364	0.76715
2840.40984	0.80011
2838.35603	0.82784
2836.30223	0.84929
2834.24843	0.86551
2832.19463	0.87773
2830.14082	0.88710
2828.08702	0.89461
2826.03322	0.90094
2823.97941	0.90645
2821.92561	0.91120
2819.87181	0.91525
2817.81800	0.91844
2815.76420	0.92067
2813.71040	0.92250
2811.65659	0.92464
2809.60279	0.92695
2807.54899	0.92892
2805.49518	0.93049
2803.44138	0.93184
2801.38758	0.93299
2799.33377	0.93380
2797.27997	0.93437
2795.22617	0.93499
2793.17236	0.93575
2791.11856	0.93674
2789.06476	0.93794
2787.01095	0.93914
2784.95715	0.94018
2782.90335	0.94093
2780.84955	0.94144
2778.79574	0.94201
2776.74194	0.94239
2774.68814	0.94245
2772.63433	0.94287
2770.58053	0.94386
2768.52673	0.94459
2766.47292	0.94477
2764.41912	0.94498
2762.36532	0.94547
2760.31151	0.94599
2758.25771	0.94649
2756.20391	0.94694
2754.15010	0.94700
2752.09630	0.94684
2750.04250	0.94688
2747.98869	0.94707
2745.93489	0.94722
2743.88109	0.94731
2741.82728	0.94746
2739.77348	0.94769
2737.71968	0.94810
2735.66587	0.94869
2733.61207	0.94896
2731.55827	0.94888
2729.50446	0.94889
2727.45066	0.94896
2725.39686	0.94922
2723.34306	0.94986
2721.28925	0.95043
2719.23545	0.95051
2717.18165	0.95033
2715.12784	0.95024
2713.07404	0.95031
2711.02024	0.95062
2708.96643	0.95096
2706.91263	0.95110
2704.85883	0.95128
2702.80502	0.95159
2700.75122	0.95172
2698.69742	0.95184
2696.64361	0.95218
2694.58981	0.95245
2692.53601	0.95253
2690.48220	0.95239
2688.42840	0.95225
2686.37460	0.95241
2684.32079	0.95259
2682.26699	0.95259
2680.21319	0.95259
2678.15938	0.95262
2676.10558	0.95250
2674.05178	0.95239
2671.99797	0.95267
2669.94417	0.95315
2667.89037	0.95315
2665.83657	0.95276
2663.78276	0.95266
2661.72896	0.95261
2659.67516	0.95224
2657.62135	0.95201
2655.56755	0.95215
2653.51375	0.95247
2651.45994	0.95291
2649.40614	0.95345
2647.35234	0.95382
2645.29853	0.95386
2643.24473	0.95378
2641.19093	0.95393
2639.13712	0.95423
2637.08332	0.95431
2635.02952	0.95422
2632.97571	0.95399
2630.92191	0.95362
2628.86811	0.95360
2626.81430	0.95373
2624.76050	0.95380
2622.70670	0.95436
2620.65289	0.95524
2618.59909	0.95602
2616.54529	0.95644
2614.49149	0.95644
2612.43768	0.95620
2610.38388	0.95610
2608.33008	0.95645
2606.27627	0.95673
2604.22247	0.95672
2602.16867	0.95682
2600.11486	0.95664
2598.06106	0.95631
2596.00726	0.95656
2593.95345	0.95718
2591.89965	0.95733
2589.84585	0.95725
2587.79204	0.95769
2585.73824	0.95806
2583.68444	0.95813
2581.63063	0.95882
2579.57683	0.95950
2577.52303	0.95957
2575.46922	0.95970
2573.41542	0.95980
2571.36162	0.95953
2569.30781	0.95893
2567.25401	0.95838
2565.20021	0.95850
2563.14640	0.95909
2561.09260	0.95934
2559.03880	0.95938
2556.98500	0.95976
2554.93119	0.96024
2552.87739	0.96050
2550.82359	0.96050
2548.76978	0.96029
2546.71598	0.96012
2544.66218	0.96021
2542.60837	0.96037
2540.55457	0.96055
2538.50077	0.96095
2536.44696	0.96124
2534.39316	0.96120
2532.33936	0.96108
2530.28555	0.96125
2528.23175	0.96211
2526.17795	0.96283
2524.12414	0.96222
2522.07034	0.96119
2520.01654	0.96098
2517.96273	0.96107
2515.90893	0.96093
2513.85513	0.96084
2511.80132	0.96067
2509.74752	0.96054
2507.69372	0.96081
2505.63992	0.96109
2503.58611	0.96107
2501.53231	0.96091
2499.47851	0.96102
2497.42470	0.96155
2495.37090	0.96204
2493.31710	0.96212
2491.26329	0.96201
2489.20949	0.96216
2487.15569	0.96247
2485.10188	0.96247
2483.04808	0.96195
2480.99428	0.96129
2478.94047	0.96134
2476.88667	0.96210
2474.83287	0.96235
2472.77906	0.96197
2470.72526	0.96205
2468.67146	0.96251
2466.61765	0.96271
2464.56385	0.96250
2462.51005	0.96199
2460.45624	0.96173
2458.40244	0.96174
2456.34864	0.96159
2454.29483	0.96146
2452.24103	0.96153
2450.18723	0.96162
2448.13343	0.96182
2446.07962	0.96220
2444.02582	0.96251
2441.97202	0.96263
2439.91821	0.96281
2437.86441	0.96312
2435.81061	0.96312
2433.75680	0.96253
2431.70300	0.96235
2429.64920	0.96284
2427.59539	0.96267
2425.54159	0.96195
2423.48779	0.96188
2421.43398	0.96219
2419.38018	0.96200
2417.32638	0.96145
2415.27257	0.96142
2413.21877	0.96203
2411.16497	0.96263
2409.11116	0.96298
2407.05736	0.96294
2405.00356	0.96233
2402.94975	0.96208
2400.89595	0.96266
2398.84215	0.96300
2396.78834	0.96248
2394.73454	0.96174
2392.68074	0.96166
2390.62694	0.96171
2388.57313	0.96166
2386.51933	0.96217
2384.46553	0.96264
2382.41172	0.96248
2380.35792	0.96237
2378.30412	0.96276
2376.25031	0.96337
2374.19651	0.96382
2372.14271	0.96376
2370.08890	0.96332
2368.03510	0.96289
2365.98130	0.96227
2363.92749	0.96194
2361.87369	0.96211
2359.81989	0.96171
2357.76608	0.96072
2355.71228	0.96042
2353.65848	0.96129
2351.60467	0.96219
2349.55087	0.96260
2347.49707	0.96258
2345.44326	0.96209
2343.38946	0.96179
2341.33566	0.96194
2339.28186	0.96184
2337.22805	0.96134
2335.17425	0.96119
2333.12045	0.96200
2331.06664	0.96286
2329.01284	0.96236
2326.95904	0.96084
2324.90523	0.96023
2322.85143	0.96111
2320.79763	0.96217
2318.74382	0.96269
2316.69002	0.96286
2314.63622	0.96257
2312.58241	0.96169
2310.52861	0.96070
2308.47481	0.96050
2306.42100	0.96094
2304.36720	0.96128
2302.31340	0.96164
2300.25959	0.96202
2298.20579	0.96208
2296.15199	0.96180
2294.09818	0.96147
2292.04438	0.96143
2289.99058	0.96189
2287.93677	0.96286
2285.88297	0.96377
2283.82917	0.96388
2281.77537	0.96364
2279.72156	0.96364
2277.66776	0.96367
2275.61396	0.96365
2273.56015	0.96321
2271.50635	0.96280
2269.45255	0.96331
2267.39874	0.96385
2265.34494	0.96404
2263.29114	0.96463
2261.23733	0.96523
2259.18353	0.96513
2257.12973	0.96446
2255.07592	0.96430
2253.02212	0.96554
2250.96832	0.96616
2248.91451	0.96453
2246.86071	0.96323
2244.80691	0.96375
2242.75310	0.96368
2240.69930	0.96232
2238.64550	0.96176
2236.59169	0.96256
2234.53789	0.96423
2232.48409	0.96539
2230.43029	0.96549
2228.37648	0.96556
2226.32268	0.96556
2224.26888	0.96605
2222.21507	0.96738
2220.16127	0.96789
2218.10747	0.96711
2216.05366	0.96613
2213.99986	0.96477
2211.94606	0.96309
2209.89225	0.96231
2207.83845	0.96323
2205.78465	0.96596
2203.73084	0.96911
2201.67704	0.97050
2199.62324	0.97053
2197.56943	0.97024
2195.51563	0.96881
2193.46183	0.96755
2191.40802	0.96687
2189.35422	0.96476
2187.30042	0.96250
2185.24661	0.96180
2183.19281	0.96203
2181.13901	0.96363
2179.08520	0.96640
2177.03140	0.96822
2174.97760	0.96907
2172.92380	0.97035
2170.86999	0.97130
2168.81619	0.97118
2166.76239	0.97151
2164.70858	0.97214
2162.65478	0.97101
2160.60098	0.97023
2158.54717	0.97201
2156.49337	0.97204
2154.43957	0.97012
2152.38576	0.96942
2150.33196	0.96826
2148.27816	0.96595
2146.22435	0.96468
2144.17055	0.96537
2142.11675	0.96710
2140.06294	0.96876
2138.00914	0.96989
2135.95534	0.97059
2133.90153	0.97064
2131.84773	0.96979
2129.79393	0.96829
2127.74012	0.96716
2125.68632	0.96764
2123.63252	0.96863
2121.57871	0.96874
2119.52491	0.96855
2117.47111	0.96786
2115.41731	0.96610
2113.36350	0.96502
2111.30970	0.96599
2109.25590	0.96721
2107.20209	0.96722
2105.14829	0.96673
2103.09449	0.96572
2101.04068	0.96464
2098.98688	0.96464
2096.93308	0.96514
2094.87927	0.96549
2092.82547	0.96612
2090.77167	0.96685
2088.71786	0.96733
2086.66406	0.96787
2084.61026	0.96816
2082.55645	0.96802
2080.50265	0.96803
2078.44885	0.96781
2076.39504	0.96722
2074.34124	0.96696
2072.28744	0.96718
2070.23363	0.96778
2068.17983	0.96771
2066.12603	0.96601
2064.07223	0.96466
2062.01842	0.96507
2059.96462	0.96636
2057.91082	0.96751
2055.85701	0.96830
2053.80321	0.96874
2051.74941	0.96846
2049.69560	0.96827
2047.64180	0.96843
2045.58800	0.96823
2043.53419	0.96848
2041.48039	0.96858
2039.42659	0.96595
2037.37278	0.96161
2035.31898	0.96000
2033.26518	0.96210
2031.21137	0.96531
2029.15757	0.96777
2027.10377	0.96909
2025.04996	0.96953
2022.99616	0.97014
2020.94236	0.97102
2018.88855	0.97155
2016.83475	0.97190
2014.78095	0.97113
2012.72714	0.96895
2010.67334	0.96744
2008.61954	0.96708
2006.56574	0.96692
2004.51193	0.96821
2002.45813	0.97073
2000.40433	0.97159
1998.35052	0.97144
1996.29672	0.97273
1994.24292	0.97368
1992.18911	0.97267
1990.13531	0.97171
1988.08151	0.97192
1986.02770	0.97178
1983.97390	0.97013
1981.92010	0.96847
1979.86629	0.96764
1977.81249	0.96777
1975.75869	0.96948
1973.70488	0.97118
1971.65108	0.97117
1969.59728	0.97090
1967.54347	0.97258
1965.48967	0.97403
1963.43587	0.97258
1961.38206	0.97034
1959.32826	0.96951
1957.27446	0.97007
1955.22066	0.97051
1953.16685	0.96914
1951.11305	0.96648
1949.05925	0.96530
1947.00544	0.96746
1944.95164	0.97002
1942.89784	0.96943
1940.84403	0.96851
1938.79023	0.96975
1936.73643	0.97051
1934.68262	0.96965
1932.62882	0.96851
1930.57502	0.96755
1928.52121	0.96659
1926.46741	0.96600
1924.41361	0.96590
1922.35980	0.96628
1920.30600	0.96691
1918.25220	0.96736
1916.19839	0.96818
1914.14459	0.96888
1912.09079	0.96845
1910.03698	0.96784
1907.98318	0.96800
1905.92938	0.96840
1903.87557	0.96865
1901.82177	0.96883
1899.76797	0.96858
1897.71417	0.96772
1895.66036	0.96652
1893.60656	0.96557
1891.55276	0.96544
1889.49895	0.96576
1887.44515	0.96628
1885.39135	0.96708
1883.33754	0.96755
1881.28374	0.96742
1879.22994	0.96719
1877.17613	0.96704
1875.12233	0.96696
1873.06853	0.96699
1871.01472	0.96733
1868.96092	0.96808
1866.90712	0.96829
1864.85331	0.96789
1862.79951	0.96745
1860.74571	0.96669
1858.69190	0.96633
1856.63810	0.96695
1854.58430	0.96736
1852.53049	0.96733
1850.47669	0.96756
1848.42289	0.96810
1846.36908	0.96857
1844.31528	0.96868
1842.26148	0.96865
1840.20768	0.96830
1838.15387	0.96713
1836.10007	0.96597
1834.04627	0.96590
1831.99246	0.96633
1829.93866	0.96642
1827.88486	0.96632
1825.83105	0.96642
1823.77725	0.96631
1821.72345	0.96605
1819.66964	0.96619
1817.61584	0.96682
1815.56204	0.96725
1813.50823	0.96690
1811.45443	0.96652
1809.40063	0.96654
1807.34682	0.96633
1805.29302	0.96586
1803.23922	0.96584
1801.18541	0.96635
1799.13161	0.96637
1797.07781	0.96596
1795.02400	0.96581
1792.97020	0.96592
1790.91640	0.96614
1788.86260	0.96618
1786.80879	0.96568
1784.75499	0.96480
1782.70119	0.96422
1780.64738	0.96422
1778.59358	0.96432
1776.53978	0.96398
1774.48597	0.96346
1772.43217	0.96368
1770.37837	0.96419
1768.32456	0.96385
1766.27076	0.96305
1764.21696	0.96229
1762.16315	0.96172
1760.10935	0.96134
1758.05555	0.96100
1756.00174	0.96037
1753.94794	0.95941
1751.89414	0.95860
1749.84033	0.95817
1747.78653	0.95685
1745.73273	0.95435
1743.67892	0.95183
1741.62512	0.94970
1739.57132	0.94799
1737.51751	0.94700
1735.46371	0.94619
1733.40991	0.94506
1731.35611	0.94499
1729.30230	0.94530
1727.24850	0.94491
1725.19470	0.94437
1723.14089	0.94396
1721.08709	0.94335
1719.03329	0.94269
1716.97948	0.94236
1714.92568	0.94219
1712.87188	0.94205
1710.81807	0.94182
1708.76427	0.94149
1706.71047	0.94121
1704.65666	0.94055
1702.60286	0.93943
1700.54906	0.93818
1698.49525	0.93701
1696.44145	0.93542
1694.38765	0.93273
1692.33384	0.93045
1690.28004	0.92866
1688.22624	0.92657
1686.17243	0.92409
1684.11863	0.92122
1682.06483	0.91896
1680.01103	0.91724
1677.95722	0.91557
1675.90342	0.91393
1673.84962	0.91258
1671.79581	0.91140
1669.74201	0.90947
1667.68821	0.90749
1665.63440	0.90605
1663.58060	0.90413
1661.52680	0.90192
1659.47299	0.90031
1657.41919	0.89902
1655.36539	0.89781
1653.31158	0.89634
1651.25778	0.89544
1649.20398	0.89548
1647.15017	0.89582
1645.09637	0.89578
1643.04257	0.89520
1640.98876	0.89477
1638.93496	0.89508
1636.88116	0.89575
1634.82735	0.89547
1632.77355	0.89501
1630.71975	0.89508
1628.66594	0.89518
1626.61214	0.89503
1624.55834	0.89484
1622.50454	0.89510
1620.45073	0.89618
1618.39693	0.89842
1616.34313	0.90201
1614.28932	0.90491
1612.23552	0.90687
1610.18172	0.90882
1608.12791	0.91048
1606.07411	0.91165
1604.02031	0.91289
1601.96650	0.91424
1599.91270	0.91514
1597.85890	0.91581
1595.80509	0.91672
1593.75129	0.91797
1591.69749	0.91914
1589.64368	0.91996
1587.58988	0.92075
1585.53608	0.92152
1583.48227	0.92191
1581.42847	0.92204
1579.37467	0.92221
1577.32086	0.92265
1575.26706	0.92348
1573.21326	0.92375
1571.15945	0.92362
1569.10565	0.92371
1567.05185	0.92379
1564.99805	0.92389
1562.94424	0.92412
1560.89044	0.92451
1558.83664	0.92619
1556.78283	0.92764
1554.72903	0.92765
1552.67523	0.92753
1550.62142	0.92737
1548.56762	0.92707
1546.51382	0.92684
1544.46001	0.92688
1542.40621	0.92710
1540.35241	0.92780
1538.29860	0.92920
1536.24480	0.93021
1534.19100	0.93145
1532.13719	0.93322
1530.08339	0.93446
1528.02959	0.93536
1525.97578	0.93664
1523.92198	0.93817
1521.86818	0.93959
1519.81437	0.94077
1517.76057	0.94147
1515.70677	0.94171
1513.65297	0.94174
1511.59916	0.94190
1509.54536	0.94238
1507.49156	0.94370
1505.43775	0.94522
1503.38395	0.94571
1501.33015	0.94621
1499.27634	0.94692
1497.22254	0.94743
1495.16874	0.94745
1493.11493	0.94729
1491.06113	0.94707
1489.00733	0.94670
1486.95352	0.94613
1484.89972	0.94526
1482.84592	0.94396
1480.79211	0.94158
1478.73831	0.93590
1476.68451	0.92002
1474.63070	0.88820
1472.57690	0.85702
1470.52310	0.85319
1468.46929	0.86019
1466.41549	0.85978
1464.36169	0.84761
1462.30788	0.84055
1460.25408	0.85089
1458.20028	0.87348
1456.14648	0.89424
1454.09267	0.90262
1452.03887	0.90714
1449.98507	0.91070
1447.93126	0.91355
1445.87746	0.91607
1443.82366	0.91793
1441.76985	0.91916
1439.71605	0.92016
1437.66225	0.92131
1435.60844	0.92263
1433.55464	0.92364
1431.50084	0.92458
1429.44703	0.92576
1427.39323	0.92665
1425.33943	0.92693
1423.28562	0.92714
1421.23182	0.92776
1419.17802	0.92872
1417.12421	0.92929
1415.07041	0.92929
1413.01661	0.92936
1410.96280	0.92986
1408.90900	0.93044
1406.85520	0.93092
1404.80139	0.93167
1402.74759	0.93249
1400.69379	0.93304
1398.63999	0.93328
1396.58618	0.93311
1394.53238	0.93286
1392.47858	0.93272
1390.42477	0.93264
1388.37097	0.93287
1386.31717	0.93320
1384.26336	0.93297
1382.20956	0.93239
1380.15576	0.93159
1378.10195	0.93082
1376.04815	0.93071
1373.99435	0.93087
1371.94054	0.93056
1369.88674	0.92997
1367.83294	0.92953
1365.77913	0.92989
1363.72533	0.93128
1361.67153	0.93282
1359.61772	0.93345
1357.56392	0.93383
1355.51012	0.93459
1353.45631	0.93515
1351.40251	0.93554
1349.34871	0.93623
1347.29491	0.93697
1345.24110	0.93731
1343.18730	0.93727
1341.13350	0.93698
1339.07969	0.93673
1337.02589	0.93668
1334.97209	0.93678
1332.91828	0.93711
1330.86448	0.93754
1328.81068	0.93783
1326.75687	0.93789
1324.70307	0.93766
1322.64927	0.93747
1320.59546	0.93765
1318.54166	0.93785
1316.48786	0.93787
1314.43405	0.93769
1312.38025	0.93737
1310.32645	0.93705
1308.27264	0.93658
1306.21884	0.93608
1304.16504	0.93593
1302.11123	0.93606
1300.05743	0.93605
1298.00363	0.93587
1295.94982	0.93577
1293.89602	0.93565
1291.84222	0.93535
1289.78842	0.93500
1287.73461	0.93477
1285.68081	0.93459
1283.62701	0.93421
1281.57320	0.93353
1279.51940	0.93252
1277.46560	0.93149
1275.41179	0.93088
1273.35799	0.93040
1271.30419	0.92967
1269.25038	0.92857
1267.19658	0.92708
1265.14278	0.92560
1263.08897	0.92439
1261.03517	0.92340
1258.98137	0.92289
1256.92756	0.92281
1254.87376	0.92252
1252.81996	0.92186
1250.76615	0.92099
1248.71235	0.92003
1246.65855	0.91907
1244.60474	0.91826
1242.55094	0.91738
1240.49714	0.91615
1238.44334	0.91507
1236.38953	0.91431
1234.33573	0.91358
1232.28193	0.91280
1230.22812	0.91196
1228.17432	0.91109
1226.12052	0.91020
1224.06671	0.90929
1222.01291	0.90827
1219.95911	0.90695
1217.90530	0.90557
1215.85150	0.90430
1213.79770	0.90307
1211.74389	0.90198
1209.69009	0.90083
1207.63629	0.89931
1205.58248	0.89752
1203.52868	0.89575
1201.47488	0.89389
1199.42107	0.89169
1197.36727	0.88927
1195.31347	0.88658
1193.25966	0.88341
1191.20586	0.87976
1189.15206	0.87602
1187.09825	0.87239
1185.04445	0.86855
1182.99065	0.86427
1180.93685	0.85971
1178.88304	0.85505
1176.82924	0.85030
1174.77544	0.84531
1172.72163	0.84048
1170.66783	0.83609
1168.61403	0.83172
1166.56022	0.82726
1164.50642	0.82313
1162.45262	0.81951
1160.39881	0.81601
1158.34501	0.81227
1156.29121	0.80846
1154.23740	0.80488
1152.18360	0.80139
1150.12980	0.79782
1148.07599	0.79434
1146.02219	0.79111
1143.96839	0.78799
1141.91458	0.78478
1139.86078	0.78130
1137.80698	0.77743
1135.75317	0.77311
1133.69937	0.76826
1131.64557	0.76284
1129.59176	0.75672
1127.53796	0.74953
1125.48416	0.74117
1123.43036	0.73188
1121.37655	0.72212
1119.32275	0.71247
1117.26895	0.70314
1115.21514	0.69452
1113.16134	0.68693
1111.10754	0.67994
1109.05373	0.67317
1106.99993	0.66650
1104.94613	0.66012
1102.89232	0.65459
1100.83852	0.64991
1098.78472	0.64580
1096.73091	0.64241
1094.67711	0.63967
1092.62331	0.63725
1090.56950	0.63518
1088.51570	0.63365
1086.46190	0.63221
1084.40809	0.63040
1082.35429	0.62823
1080.30049	0.62582
1078.24668	0.62314
1076.19288	0.61994
1074.13908	0.61636
1072.08528	0.61246
1070.03147	0.60781
1067.97767	0.60226
1065.92387	0.59604
1063.87006	0.58902
1061.81626	0.58094
1059.76246	0.57215
1057.70865	0.56289
1055.65485	0.55300
1053.60105	0.54223
1051.54724	0.53011
1049.49344	0.51711
1047.43964	0.50423
1045.38583	0.49164
1043.33203	0.47902
1041.27823	0.46627
1039.22442	0.45380
1037.17062	0.44249
1035.11682	0.43283
1033.06301	0.42479
1031.00921	0.41854
1028.95541	0.41458
1026.90160	0.41294
1024.84780	0.41285
1022.79400	0.41346
1020.74019	0.41401
1018.68639	0.41368
1016.63259	0.41231
1014.57879	0.41040
1012.52498	0.40799
1010.47118	0.40506
1008.41738	0.40235
1006.36357	0.40128
1004.30977	0.40305
1002.25597	0.40771
1000.20216	0.41498
998.14836	0.42465
996.09456	0.43614
994.04075	0.44901
991.98695	0.46303
989.93315	0.47782
987.87934	0.49289
985.82554	0.50807
983.77174	0.52348
981.71793	0.53917
979.66413	0.55475
977.61033	0.56984
975.55652	0.58485
973.50272	0.60009
971.44892	0.61491
969.39511	0.62836
967.34131	0.64043
965.28751	0.65180
963.23371	0.66255
961.17990	0.67213
959.12610	0.68029
957.07230	0.68738
955.01849	0.69371
952.96469	0.69941
950.91089	0.70472
948.85708	0.70977
946.80328	0.71417
944.74948	0.71752
942.69567	0.72015
940.64187	0.72269
938.58807	0.72533
936.53426	0.72765
934.48046	0.72946
932.42666	0.73112
930.37285	0.73234
928.31905	0.73271
926.26525	0.73248
924.21144	0.73144
922.15764	0.72902
920.10384	0.72483
918.05003	0.71934
915.99623	0.71440
913.94243	0.71163
911.88862	0.71166
909.83482	0.71540
907.78102	0.72344
905.72722	0.73483
903.67341	0.74717
901.61961	0.75854
899.56581	0.76880
897.51200	0.77812
895.45820	0.78607
893.40440	0.79274
891.35059	0.79855
889.29679	0.80331
887.24299	0.80696
885.18918	0.81019
883.13538	0.81331
881.08158	0.81600
879.02777	0.81844
876.97397	0.82132
874.92017	0.82452
872.86636	0.82740
870.81256	0.83004
868.75876	0.83285
866.70495	0.83582
864.65115	0.83894
862.59735	0.84245
860.54354	0.84611
858.48974	0.84929
856.43594	0.85213
854.38213	0.85474
852.32833	0.85686
850.27453	0.85873
848.22073	0.86014
846.16692	0.86091
844.11312	0.86149
842.05932	0.86134
840.00551	0.85988
837.95171	0.85783
835.89791	0.85644
833.84410	0.85606
831.79030	0.85541
829.73650	0.85400
827.68269	0.85270
825.62889	0.85192
823.57509	0.85119
821.52128	0.84977
819.46748	0.84829
817.41368	0.84802
815.35987	0.84845
813.30607	0.84781
811.25227	0.84503
809.19846	0.84054
807.14466	0.83598
805.09086	0.83168
803.03705	0.82627
800.98325	0.82089
798.92945	0.81802
796.87565	0.81743
794.82184	0.81773
792.76804	0.81832
790.71424	0.81914
788.66043	0.82034
786.60663	0.82112
784.55283	0.81993
782.49902	0.81759
780.44522	0.81648
778.39142	0.81691
776.33761	0.81752
774.28381	0.81834
772.23001	0.82005
770.17620	0.82135
768.12240	0.82061
766.06860	0.81830
764.01479	0.81601
761.96099	0.81434
759.90719	0.81293
757.85338	0.81117
755.79958	0.80852
753.74578	0.80575
751.69197	0.80432
749.63817	0.80384
747.58437	0.80314
745.53056	0.80296
743.47676	0.80425
741.42296	0.80639
739.36916	0.80836
737.31535	0.80870
735.26155	0.80188
733.20775	0.77968
731.15394	0.75050
729.10014	0.73948
727.04634	0.74878
724.99253	0.75456
722.93873	0.73960
720.88493	0.70429
718.83112	0.67522
716.77732	0.67981
714.72352	0.70818
712.66971	0.73560
710.61591	0.75191
708.56211	0.75874
706.50830	0.75957
704.45450	0.75703
702.40070	0.75231
700.34689	0.74639
698.29309	0.74098
696.23929	0.73727
694.18548	0.73555
692.13168	0.73548
690.07788	0.73635
688.02408	0.73718
685.97027	0.73761
683.91647	0.73807
681.86267	0.73878
679.80886	0.73974
677.75506	0.74052
675.70126	0.74063
673.64745	0.74065
671.59365	0.74099
669.53985	0.74148
667.48604	0.74327
665.43224	0.74619
663.37844	0.74904
661.32463	0.75171
659.27083	0.75357
657.21703	0.75447
655.16322	0.75448
653.10942	0.75347
651.05562	0.75280
649.00181	0.75275
646.94801	0.75196
644.89421	0.75147
642.84040	0.75232
640.78660	0.75301
638.73280	0.75229
636.67899	0.75130
634.62519	0.75109
632.57139	0.75074
630.51759	0.74924
628.46378	0.74729
626.40998	0.74624
624.35618	0.74603
622.30237	0.74562
620.24857	0.74393
618.19477	0.74156
616.14096	0.73947
614.08716	0.73662
612.03336	0.73226
609.97955	0.72667
607.92575	0.72074
605.87195	0.71537
603.81814	0.71111
601.76434	0.70780
599.71054	0.70496
597.65673	0.70302
595.60293	0.70154
593.54913	0.69912
591.49532	0.69615
589.44152	0.69407
587.38772	0.69249
585.33391	0.68980
583.28011	0.68651
581.22631	0.68362
579.17250	0.68012
577.11870	0.67582
575.06490	0.67189
573.01110	0.66783
570.95729	0.66214
568.90349	0.65589
566.84969	0.65067
564.79588	0.64702
562.74208	0.64501
560.68828	0.64164
558.63447	0.63575
556.58067	0.62984
554.52687	0.62371
552.47306	0.61615
550.41926	0.60840
548.36546	0.60059
546.31165	0.59043
544.25785	0.57795
542.20405	0.56561
540.15024	0.55489
538.09644	0.54742
536.04264	0.54328
533.98883	0.54000
531.93503	0.53735
529.88123	0.53700
527.82742	0.53910
525.77362	0.54307
523.71982	0.54814
521.66602	0.55335
519.61221	0.55791
517.55841	0.56177
515.50461	0.56615
513.45080	0.57194
511.39700	0.57878
509.34320	0.58557
507.28939	0.59091
505.23559	0.59489
503.18179	0.59875
501.12798	0.60232
499.07418	0.60502
497.02038	0.60677
494.96657	0.60667
492.91277	0.60392
490.85897	0.59883
488.80516	0.59133
486.75136	0.58072
484.69756	0.56857
482.64375	0.55629
480.58995	0.54196
478.53615	0.52472
476.48234	0.50625
474.42854	0.48781
472.37474	0.46800
470.32093	0.44960
468.26713	0.43673
466.21333	0.42978
464.15953	0.43003
462.10572	0.43609
460.05192	0.44470
457.99812	0.45511
455.94431	0.46401
453.89051	0.46950
451.83671	0.47598
449.78290	0.48399
447.72910	0.49236
445.67530	0.50106
443.62149	0.50684
441.56769	0.50845
439.51389	0.50864
437.46008	0.50785
435.40628	0.50339
433.35248	0.49755
431.29867	0.49489
429.24487	0.49257
427.19107	0.49005
425.13726	0.49110
423.08346	0.49563
421.02966	0.50273
418.97585	0.51601
416.92205	0.53299
414.86825	0.54541
412.81445	0.55601
410.76064	0.56882
408.70684	0.58214
406.65304	0.59290
404.59923	0.60283
402.54543	0.60964
400.49163	0.60783
398.43782	0.60032
