3996.70104	0.96625
3994.64724	0.96617
3992.59344	0.96621
3990.53964	0.96604
3988.48583	0.96562
3986.43203	0.96548
3984.37823	0.96562
3982.32442	0.96555
3980.27062	0.96526
3978.21682	0.96495
3976.16301	0.96474
3974.10921	0.96449
3972.05541	0.96414
3970.00160	0.96442
3967.94780	0.96516
3965.89400	0.96557
3963.84019	0.96584
3961.78639	0.96617
3959.73259	0.96632
3957.67878	0.96635
3955.62498	0.96642
3953.57118	0.96640
3951.51737	0.96635
3949.46357	0.96624
3947.40977	0.96587
3945.35596	0.96573
3943.30216	0.96613
3941.24836	0.96639
3939.19455	0.96604
3937.14075	0.96566
3935.08695	0.96551
3933.03315	0.96552
3930.97934	0.96573
3928.92554	0.96609
3926.87174	0.96625
3924.81793	0.96589
3922.76413	0.96580
3920.71033	0.96646
3918.65652	0.96675
3916.60272	0.96631
3914.54892	0.96607
3912.49511	0.96638
3910.44131	0.96693
3908.38751	0.96721
3906.33370	0.96722
3904.27990	0.96744
3902.22610	0.96764
3900.17229	0.96755
3898.11849	0.96711
3896.06469	0.96624
3894.01088	0.96577
3891.95708	0.96624
3889.90328	0.96677
3887.84947	0.96677
3885.79567	0.96678
3883.74187	0.96719
3881.68807	0.96770
3879.63426	0.96786
3877.58046	0.96757
3875.52666	0.96710
3873.47285	0.96697
3871.41905	0.96736
3869.36525	0.96742
3867.31144	0.96703
3865.25764	0.96714
3863.20384	0.96763
3861.15003	0.96790
3859.09623	0.96796
3857.04243	0.96784
3854.98862	0.96720
3852.93482	0.96667
3850.88102	0.96781
3848.82721	0.96879
3846.77341	0.96899
3844.71961	0.96854
3842.66580	0.96810
3840.61200	0.96873
3838.55820	0.96952
3836.50439	0.96884
3834.45059	0.96744
3832.39679	0.96678
3830.34298	0.96710
3828.28918	0.96751
3826.23538	0.96769
3824.18158	0.96784
3822.12777	0.96798
3820.07397	0.96807
3818.02017	0.96808
3815.96636	0.96820
3813.91256	0.96821
3811.85876	0.96799
3809.80495	0.96761
3807.75115	0.96714
3805.69735	0.96679
3803.64354	0.96679
3801.58974	0.96746
3799.53594	0.96820
3797.48213	0.96862
3795.42833	0.96864
3793.37453	0.96800
3791.32072	0.96755
3789.26692	0.96769
3787.21312	0.96789
3785.15931	0.96791
3783.10551	0.96796
3781.05171	0.96799
3778.99790	0.96801
3776.94410	0.96814
3774.89030	0.96839
3772.83650	0.96872
3770.78269	0.96884
3768.72889	0.96847
3766.67509	0.96789
3764.62128	0.96740
3762.56748	0.96721
3760.51368	0.96762
3758.45987	0.96839
3756.40607	0.96856
3754.35227	0.96815
3752.29846	0.96812
3750.24466	0.96908
3748.19086	0.96939
3746.13705	0.96830
3744.08325	0.96742
3742.02945	0.96843
3739.97564	0.96978
3737.92184	0.97066
3735.86804	0.97057
3733.81423	0.96969
3731.76043	0.96935
3729.70663	0.96919
3727.65282	0.96901
3725.59902	0.96882
3723.54522	0.96802
3721.49141	0.96670
3719.43761	0.96559
3717.38381	0.96473
3715.33001	0.96383
3713.27620	0.96258
3711.22240	0.95964
3709.16860	0.95554
3707.11479	0.95243
3705.06099	0.94973
3703.00719	0.94663
3700.95338	0.94255
3698.89958	0.93926
3696.84578	0.93846
3694.79197	0.93913
3692.73817	0.94029
3690.68437	0.94219
3688.63056	0.94485
3686.57676	0.94666
3684.52296	0.94772
3682.46915	0.94863
3680.41535	0.94901
3678.36155	0.94900
3676.30774	0.94886
3674.25394	0.94776
3672.20014	0.94648
3670.14633	0.94597
3668.09253	0.94573
3666.03873	0.94500
3663.98492	0.94398
3661.93112	0.94330
3659.87732	0.94289
3657.82352	0.94203
3655.76971	0.94021
3653.71591	0.93847
3651.66211	0.93808
3649.60830	0.93859
3647.55450	0.93821
3645.50070	0.93697
3643.44689	0.93580
3641.39309	0.93513
3639.33929	0.93524
3637.28548	0.93550
3635.23168	0.93522
3633.17788	0.93425
3631.12407	0.93282
3629.07027	0.93065
3627.01647	0.92768
3624.96266	0.92536
3622.90886	0.92389
3620.85506	0.92327
3618.80125	0.92374
3616.74745	0.92505
3614.69365	0.92636
3612.63984	0.92714
3610.58604	0.92774
3608.53224	0.92871
3606.47844	0.92943
3604.42463	0.92946
3602.37083	0.92894
3600.31703	0.92821
3598.26322	0.92819
3596.20942	0.92869
3594.15562	0.92897
3592.10181	0.92916
3590.04801	0.92930
3587.99421	0.92889
3585.94040	0.92801
3583.88660	0.92759
3581.83280	0.92718
3579.77899	0.92636
3577.72519	0.92555
3575.67139	0.92504
3573.61758	0.92462
3571.56378	0.92398
3569.50998	0.92348
3567.45617	0.92389
3565.40237	0.92422
3563.34857	0.92363
3561.29476	0.92293
3559.24096	0.92208
3557.18716	0.92106
3555.13335	0.92051
3553.07955	0.92051
3551.02575	0.91992
3548.97195	0.91882
3546.91814	0.91839
3544.86434	0.91809
3542.81054	0.91718
3540.75673	0.91632
3538.70293	0.91575
3536.64913	0.91521
3534.59532	0.91489
3532.54152	0.91494
3530.48772	0.91492
3528.43391	0.91447
3526.38011	0.91435
3524.32631	0.91524
3522.27250	0.91605
3520.21870	0.91586
3518.16490	0.91537
3516.11109	0.91517
3514.05729	0.91524
3512.00349	0.91529
3509.94968	0.91538
3507.89588	0.91565
3505.84208	0.91584
3503.78827	0.91574
3501.73447	0.91547
3499.68067	0.91521
3497.62687	0.91466
3495.57306	0.91413
3493.51926	0.91426
3491.46546	0.91441
3489.41165	0.91398
3487.35785	0.91353
3485.30405	0.91351
3483.25024	0.91359
3481.19644	0.91311
3479.14264	0.91228
3477.08883	0.91211
3475.03503	0.91234
3472.98123	0.91205
3470.92742	0.91181
3468.87362	0.91207
3466.81982	0.91226
3464.76601	0.91233
3462.71221	0.91225
3460.65841	0.91161
3458.60460	0.91051
3456.55080	0.90965
3454.49700	0.90917
3452.44319	0.90859
3450.38939	0.90805
3448.33559	0.90773
3446.28178	0.90761
3444.22798	0.90747
3442.17418	0.90699
3440.12038	0.90642
3438.06657	0.90618
3436.01277	0.90605
3433.95897	0.90559
3431.90516	0.90500
3429.85136	0.90448
3427.79756	0.90376
3425.74375	0.90288
3423.68995	0.90194
3421.63615	0.90094
3419.58234	0.90060
3417.52854	0.90088
3415.47474	0.90083
3413.42093	0.90001
3411.36713	0.89888
3409.31333	0.89827
3407.25952	0.89806
3405.20572	0.89778
3403.15192	0.89751
3401.09811	0.89717
3399.04431	0.89695
3396.99051	0.89731
3394.93670	0.89778
3392.88290	0.89773
3390.82910	0.89759
3388.77529	0.89791
3386.72149	0.89815
3384.66769	0.89778
3382.61389	0.89764
3380.56008	0.89821
3378.50628	0.89877
3376.45248	0.89926
3374.39867	0.89978
3372.34487	0.89995
3370.29107	0.90012
3368.23726	0.90066
3366.18346	0.90104
3364.12966	0.90115
3362.07585	0.90104
3360.02205	0.90070
3357.96825	0.90071
3355.91444	0.90107
3353.86064	0.90136
3351.80684	0.90171
3349.75303	0.90225
3347.69923	0.90287
3345.64543	0.90323
3343.59162	0.90299
3341.53782	0.90265
3339.48402	0.90262
3337.43021	0.90287
3335.37641	0.90332
3333.32261	0.90343
3331.26881	0.90309
3329.21500	0.90299
3327.16120	0.90322
3325.10740	0.90336
3323.05359	0.90350
3320.99979	0.90380
3318.94599	0.90395
3316.89218	0.90400
3314.83838	0.90438
3312.78458	0.90479
3310.73077	0.90485
3308.67697	0.90490
3306.62317	0.90513
3304.56936	0.90522
3302.51556	0.90522
3300.46176	0.90559
3298.40795	0.90612
3296.35415	0.90651
3294.30035	0.90661
3292.24654	0.90619
3290.19274	0.90571
3288.13894	0.90581
3286.08513	0.90637
3284.03133	0.90657
3281.97753	0.90632
3279.92372	0.90675
3277.86992	0.90796
3275.81612	0.90851
3273.76232	0.90795
3271.70851	0.90733
3269.65471	0.90742
3267.60091	0.90804
3265.54710	0.90855
3263.49330	0.90867
3261.43950	0.90872
3259.38569	0.90920
3257.33189	0.90983
3255.27809	0.91016
3253.22428	0.91048
3251.17048	0.91123
3249.11668	0.91189
3247.06287	0.91195
3245.00907	0.91175
3242.95527	0.91178
3240.90146	0.91212
3238.84766	0.91244
3236.79386	0.91282
3234.74005	0.91353
3232.68625	0.91428
3230.63245	0.91468
3228.57864	0.91493
3226.52484	0.91516
3224.47104	0.91511
3222.41724	0.91493
3220.36343	0.91509
3218.30963	0.91572
3216.25583	0.91626
3214.20202	0.91626
3212.14822	0.91624
3210.09442	0.91661
3208.04061	0.91706
3205.98681	0.91752
3203.93301	0.91790
3201.87920	0.91813
3199.82540	0.91869
3197.77160	0.91977
3195.71779	0.92093
3193.66399	0.92132
3191.61019	0.92104
3189.55638	0.92131
3187.50258	0.92203
3185.44878	0.92218
3183.39497	0.92197
3181.34117	0.92230
3179.28737	0.92308
3177.23356	0.92365
3175.17976	0.92394
3173.12596	0.92417
3171.07215	0.92463
3169.01835	0.92560
3166.96455	0.92671
3164.91075	0.92723
3162.85694	0.92742
3160.80314	0.92774
3158.74934	0.92806
3156.69553	0.92842
3154.64173	0.92877
3152.58793	0.92886
3150.53412	0.92885
3148.48032	0.92908
3146.42652	0.92979
3144.37271	0.93076
3142.31891	0.93143
3140.26511	0.93133
3138.21130	0.93094
3136.15750	0.93109
3134.10370	0.93190
3132.04989	0.93265
3129.99609	0.93285
3127.94229	0.93297
3125.88848	0.93314
3123.83468	0.93333
3121.78088	0.93380
3119.72707	0.93419
3117.67327	0.93426
3115.61947	0.93430
3113.56566	0.93459
3111.51186	0.93523
3109.45806	0.93597
3107.40426	0.93641
3105.35045	0.93665
3103.29665	0.93709
3101.24285	0.93735
3099.18904	0.93723
3097.13524	0.93722
3095.08144	0.93738
3093.02763	0.93753
3090.97383	0.93759
3088.92003	0.93754
3086.86622	0.93755
3084.81242	0.93794
3082.75862	0.93863
3080.70481	0.93928
3078.65101	0.93965
3076.59721	0.93954
3074.54340	0.93944
3072.48960	0.93998
3070.43580	0.94087
3068.38199	0.94154
3066.32819	0.94185
3064.27439	0.94193
3062.22058	0.94209
3060.16678	0.94248
3058.11298	0.94287
3056.05918	0.94298
3054.00537	0.94302
3051.95157	0.94330
3049.89777	0.94360
3047.84396	0.94363
3045.79016	0.94364
3043.73636	0.94409
3041.68255	0.94473
3039.62875	0.94487
3037.57495	0.94461
3035.52114	0.94474
3033.46734	0.94524
3031.41354	0.94551
3029.35973	0.94575
3027.30593	0.94637
3025.25213	0.94689
3023.19832	0.94691
3021.14452	0.94701
3019.09072	0.94730
3017.03691	0.94726
3014.98311	0.94733
3012.92931	0.94776
3010.87550	0.94810
3008.82170	0.94822
3006.76790	0.94817
3004.71409	0.94812
3002.66029	0.94842
3000.60649	0.94873
2998.55269	0.94866
2996.49888	0.94863
2994.44508	0.94889
2992.39128	0.94894
2990.33747	0.94851
2988.28367	0.94809
2986.22987	0.94784
2984.17606	0.94775
2982.12226	0.94777
2980.06846	0.94758
2978.01465	0.94713
2975.96085	0.94657
2973.90705	0.94608
2971.85324	0.94557
2969.79944	0.94471
2967.74564	0.94358
2965.69183	0.94241
2963.63803	0.94132
2961.58423	0.94011
2959.53042	0.93872
2957.47662	0.93779
2955.42282	0.93742
2953.36901	0.93667
2951.31521	0.93547
2949.26141	0.93449
2947.20761	0.93365
2945.15380	0.93181
2943.10000	0.92848
2941.04620	0.92435
2938.99239	0.91959
2936.93859	0.91386
2934.88479	0.90706
2932.83098	0.89884
2930.77718	0.88900
2928.72338	0.87761
2926.66957	0.86447
2924.61577	0.84911
2922.56197	0.83140
2920.50816	0.81208
2918.45436	0.79350
2916.40056	0.78037
2914.34675	0.77744
2912.29295	0.78513
2910.23915	0.79930
2908.18534	0.81495
2906.13154	0.82891
2904.07774	0.84000
2902.02393	0.84835
2899.97013	0.85495
2897.91633	0.86084
2895.86252	0.86633
2893.80872	0.87131
2891.75492	0.87591
2889.70112	0.88057
2887.64731	0.88562
2885.59351	0.89092
2883.53971	0.89603
2881.48590	0.90090
2879.43210	0.90571
2877.37830	0.91046
2875.32449	0.91474
2873.27069	0.91814
2871.21689	0.92056
2869.16308	0.92207
2867.10928	0.92276
2865.05548	0.92215
2863.00167	0.91949
2860.94787	0.91419
2858.89407	0.90565
2856.84026	0.89282
2854.78646	0.87392
2852.73266	0.84869
2850.67885	0.82178
2848.62505	0.80303
2846.57125	0.80111
2844.51744	0.81482
2842.46364	0.83538
2840.40984	0.85584
2838.35603	0.87336
2836.30223	0.88691
2834.24843	0.89697
2832.19463	0.90471
2830.14082	0.91083
2828.08702	0.91578
2826.03322	0.91984
2823.97941	0.92309
2821.92561	0.92566
2819.87181	0.92782
2817.81800	0.92986
2815.76420	0.93176
2813.71040	0.93323
2811.65659	0.93456
2809.60279	0.93606
2807.54899	0.93737
2805.49518	0.93839
2803.44138	0.93928
2801.38758	0.94021
2799.33377	0.94145
2797.27997	0.94260
2795.22617	0.94317
2793.17236	0.94344
2791.11856	0.94377
2789.06476	0.94429
2787.01095	0.94510
2784.95715	0.94600
2782.90335	0.94666
2780.84955	0.94705
2778.79574	0.94734
2776.74194	0.94757
2774.68814	0.94774
2772.63433	0.94821
2770.58053	0.94896
2768.52673	0.94931
2766.47292	0.94939
2764.41912	0.94971
2762.36532	0.95017
2760.31151	0.95055
2758.25771	0.95079
2756.20391	0.95092
2754.15010	0.95109
2752.09630	0.95143
2750.04250	0.95176
2747.98869	0.95195
2745.93489	0.95225
2743.88109	0.95239
2741.82728	0.95193
2739.77348	0.95149
2737.71968	0.95164
2735.66587	0.95216
2733.61207	0.95262
2731.55827	0.95280
2729.50446	0.95305
2727.45066	0.95338
2725.39686	0.95333
2723.34306	0.95322
2721.28925	0.95346
2719.23545	0.95369
2717.18165	0.95378
2715.12784	0.95391
2713.07404	0.95402
2711.02024	0.95421
2708.96643	0.95455
2706.91263	0.95481
2704.85883	0.95480
2702.80502	0.95472
2700.75122	0.95492
2698.69742	0.95527
2696.64361	0.95551
2694.58981	0.95567
2692.53601	0.95597
2690.48220	0.95626
2688.42840	0.95630
2686.37460	0.95611
2684.32079	0.95600
2682.26699	0.95603
2680.21319	0.95590
2678.15938	0.95584
2676.10558	0.95603
2674.05178	0.95601
2671.99797	0.95578
2669.94417	0.95598
2667.89037	0.95636
2665.83657	0.95646
2663.78276	0.95634
2661.72896	0.95619
2659.67516	0.95630
2657.62135	0.95651
2655.56755	0.95656
2653.51375	0.95658
2651.45994	0.95659
2649.40614	0.95665
2647.35234	0.95693
2645.29853	0.95728
2643.24473	0.95735
2641.19093	0.95708
2639.13712	0.95681
2637.08332	0.95681
2635.02952	0.95707
2632.97571	0.95754
2630.92191	0.95767
2628.86811	0.95727
2626.81430	0.95705
2624.76050	0.95744
2622.70670	0.95807
2620.65289	0.95832
2618.59909	0.95843
2616.54529	0.95897
2614.49149	0.95949
2612.43768	0.95955
2610.38388	0.95931
2608.33008	0.95901
2606.27627	0.95921
2604.22247	0.95967
2602.16867	0.95950
2600.11486	0.95911
2598.06106	0.95944
2596.00726	0.96007
2593.95345	0.96032
2591.89965	0.96056
2589.84585	0.96086
2587.79204	0.96051
2585.73824	0.95967
2583.68444	0.95943
2581.63063	0.95997
2579.57683	0.96068
2577.52303	0.96127
2575.46922	0.96152
2573.41542	0.96140
2571.36162	0.96125
2569.30781	0.96124
2567.25401	0.96131
2565.20021	0.96127
2563.14640	0.96092
2561.09260	0.96091
2559.03880	0.96157
2556.98500	0.96215
2554.93119	0.96217
2552.87739	0.96208
2550.82359	0.96225
2548.76978	0.96235
2546.71598	0.96265
2544.66218	0.96346
2542.60837	0.96389
2540.55457	0.96342
2538.50077	0.96267
2536.44696	0.96203
2534.39316	0.96158
2532.33936	0.96164
2530.28555	0.96212
2528.23175	0.96279
2526.17795	0.96341
2524.12414	0.96373
2522.07034	0.96377
2520.01654	0.96343
2517.96273	0.96324
2515.90893	0.96352
2513.85513	0.96373
2511.80132	0.96385
2509.74752	0.96397
2507.69372	0.96373
2505.63992	0.96340
2503.58611	0.96348
2501.53231	0.96353
2499.47851	0.96365
2497.42470	0.96426
2495.37090	0.96439
2493.31710	0.96405
2491.26329	0.96419
2489.20949	0.96431
2487.15569	0.96429
2485.10188	0.96458
2483.04808	0.96447
2480.99428	0.96385
2478.94047	0.96347
2476.88667	0.96333
2474.83287	0.96324
2472.77906	0.96331
2470.72526	0.96353
2468.67146	0.96395
2466.61765	0.96495
2464.56385	0.96604
2462.51005	0.96567
2460.45624	0.96420
2458.40244	0.96319
2456.34864	0.96314
2454.29483	0.96368
2452.24103	0.96369
2450.18723	0.96343
2448.13343	0.96399
2446.07962	0.96465
2444.02582	0.96476
2441.97202	0.96475
2439.91821	0.96468
2437.86441	0.96451
2435.81061	0.96450
2433.75680	0.96476
2431.70300	0.96480
2429.64920	0.96473
2427.59539	0.96513
2425.54159	0.96517
2423.48779	0.96437
2421.43398	0.96389
2419.38018	0.96381
2417.32638	0.96352
2415.27257	0.96351
2413.21877	0.96418
2411.16497	0.96484
2409.11116	0.96492
2407.05736	0.96490
2405.00356	0.96495
2402.94975	0.96486
2400.89595	0.96473
2398.84215	0.96428
2396.78834	0.96390
2394.73454	0.96438
2392.68074	0.96532
2390.62694	0.96589
2388.57313	0.96568
2386.51933	0.96511
2384.46553	0.96491
2382.41172	0.96515
2380.35792	0.96546
2378.30412	0.96538
2376.25031	0.96483
2374.19651	0.96446
2372.14271	0.96458
2370.08890	0.96497
2368.03510	0.96536
2365.98130	0.96577
2363.92749	0.96573
2361.87369	0.96388
2359.81989	0.96215
2357.76608	0.96332
2355.71228	0.96577
2353.65848	0.96636
2351.60467	0.96506
2349.55087	0.96419
2347.49707	0.96423
2345.44326	0.96397
2343.38946	0.96345
2341.33566	0.96406
2339.28186	0.96470
2337.22805	0.96417
2335.17425	0.96358
2333.12045	0.96339
2331.06664	0.96403
2329.01284	0.96495
2326.95904	0.96430
2324.90523	0.96315
2322.85143	0.96312
2320.79763	0.96367
2318.74382	0.96414
2316.69002	0.96409
2314.63622	0.96389
2312.58241	0.96413
2310.52861	0.96458
2308.47481	0.96515
2306.42100	0.96530
2304.36720	0.96482
2302.31340	0.96459
2300.25959	0.96465
2298.20579	0.96440
2296.15199	0.96410
2294.09818	0.96416
2292.04438	0.96396
2289.99058	0.96361
2287.93677	0.96386
2285.88297	0.96420
2283.82917	0.96384
2281.77537	0.96349
2279.72156	0.96412
2277.66776	0.96466
2275.61396	0.96468
2273.56015	0.96531
2271.50635	0.96598
2269.45255	0.96559
2267.39874	0.96540
2265.34494	0.96622
2263.29114	0.96661
2261.23733	0.96640
2259.18353	0.96634
2257.12973	0.96598
2255.07592	0.96536
2253.02212	0.96508
2250.96832	0.96487
2248.91451	0.96452
2246.86071	0.96456
2244.80691	0.96484
2242.75310	0.96521
2240.69930	0.96516
2238.64550	0.96426
2236.59169	0.96417
2234.53789	0.96583
2232.48409	0.96716
2230.43029	0.96614
2228.37648	0.96422
2226.32268	0.96368
2224.26888	0.96448
2222.21507	0.96594
2220.16127	0.96764
2218.10747	0.96844
2216.05366	0.96857
2213.99986	0.96883
2211.94606	0.96841
2209.89225	0.96803
2207.83845	0.96902
2205.78465	0.97056
2203.73084	0.97140
2201.67704	0.97140
2199.62324	0.97041
2197.56943	0.96880
2195.51563	0.96793
2193.46183	0.96733
2191.40802	0.96662
2189.35422	0.96737
2187.30042	0.96940
2185.24661	0.97089
2183.19281	0.97089
2181.13901	0.96920
2179.08520	0.96796
2177.03140	0.96819
2174.97760	0.96732
2172.92380	0.96616
2170.86999	0.96651
2168.81619	0.96594
2166.76239	0.96448
2164.70858	0.96474
2162.65478	0.96554
2160.60098	0.96711
2158.54717	0.97203
2156.49337	0.97524
2154.43957	0.97345
2152.38576	0.97170
2150.33196	0.97122
2148.27816	0.97094
2146.22435	0.97209
2144.17055	0.97331
2142.11675	0.97227
2140.06294	0.96938
2138.00914	0.96716
2135.95534	0.96756
2133.90153	0.96974
2131.84773	0.97108
2129.79393	0.97086
2127.74012	0.97039
2125.68632	0.97014
2123.63252	0.96989
2121.57871	0.96917
2119.52491	0.96835
2117.47111	0.96808
2115.41731	0.96781
2113.36350	0.96744
2111.30970	0.96727
2109.25590	0.96696
2107.20209	0.96682
2105.14829	0.96759
2103.09449	0.96850
2101.04068	0.96848
2098.98688	0.96808
2096.93308	0.96736
2094.87927	0.96649
2092.82547	0.96719
2090.77167	0.96898
2088.71786	0.96951
2086.66406	0.96841
2084.61026	0.96757
2082.55645	0.96807
2080.50265	0.96889
2078.44885	0.96911
2076.39504	0.96897
2074.34124	0.96896
2072.28744	0.96886
2070.23363	0.96828
2068.17983	0.96718
2066.12603	0.96663
2064.07223	0.96775
2062.01842	0.96923
2059.96462	0.96890
2057.91082	0.96773
2055.85701	0.96870
2053.80321	0.97051
2051.74941	0.97060
2049.69560	0.97008
2047.64180	0.96944
2045.58800	0.96889
2043.53419	0.96952
2041.48039	0.96929
2039.42659	0.96778
2037.37278	0.96851
2035.31898	0.97008
2033.26518	0.96943
2031.21137	0.96967
2029.15757	0.97203
2027.10377	0.97283
2025.04996	0.97242
2022.99616	0.97343
2020.94236	0.97471
2018.88855	0.97477
2016.83475	0.97422
2014.78095	0.97347
2012.72714	0.97148
2010.67334	0.96935
2008.61954	0.97129
2006.56574	0.97558
2004.51193	0.97553
2002.45813	0.97134
2000.40433	0.96816
1998.35052	0.96853
1996.29672	0.97070
1994.24292	0.97218
1992.18911	0.97262
1990.13531	0.97337
1988.08151	0.97512
1986.02770	0.97564
1983.97390	0.97330
1981.92010	0.97059
1979.86629	0.97031
1977.81249	0.97265
1975.75869	0.97558
1973.70488	0.97537
1971.65108	0.97196
1969.59728	0.96937
1967.54347	0.96891
1965.48967	0.96952
1963.43587	0.97092
1961.38206	0.97289
1959.32826	0.97338
1957.27446	0.97203
1955.22066	0.97169
1953.16685	0.97266
1951.11305	0.97293
1949.05925	0.97189
1947.00544	0.97039
1944.95164	0.96970
1942.89784	0.97040
1940.84403	0.97163
1938.79023	0.97181
1936.73643	0.97162
1934.68262	0.97212
1932.62882	0.97219
1930.57502	0.97154
1928.52121	0.97124
1926.46741	0.97115
1924.41361	0.97091
1922.35980	0.97091
1920.30600	0.97041
1918.25220	0.96903
1916.19839	0.96831
1914.14459	0.96893
1912.09079	0.97000
1910.03698	0.97021
1907.98318	0.96955
1905.92938	0.96900
1903.87557	0.96816
1901.82177	0.96730
1899.76797	0.96735
1897.71417	0.96794
1895.66036	0.96840
1893.60656	0.96831
1891.55276	0.96821
1889.49895	0.96914
1887.44515	0.97017
1885.39135	0.97022
1883.33754	0.97005
1881.28374	0.96981
1879.22994	0.96921
1877.17613	0.96869
1875.12233	0.96836
1873.06853	0.96826
1871.01472	0.96852
1868.96092	0.96878
1866.90712	0.96889
1864.85331	0.96884
1862.79951	0.96858
1860.74571	0.96855
1858.69190	0.96906
1856.63810	0.96969
1854.58430	0.96980
1852.53049	0.96943
1850.47669	0.96899
1848.42289	0.96873
1846.36908	0.96890
1844.31528	0.96919
1842.26148	0.96883
1840.20768	0.96834
1838.15387	0.96836
1836.10007	0.96851
1834.04627	0.96867
1831.99246	0.96923
1829.93866	0.96976
1827.88486	0.96976
1825.83105	0.96947
1823.77725	0.96921
1821.72345	0.96912
1819.66964	0.96911
1817.61584	0.96897
1815.56204	0.96843
1813.50823	0.96799
1811.45443	0.96824
1809.40063	0.96874
1807.34682	0.96875
1805.29302	0.96829
1803.23922	0.96821
1801.18541	0.96878
1799.13161	0.96904
1797.07781	0.96887
1795.02400	0.96891
1792.97020	0.96890
1790.91640	0.96837
1788.86260	0.96785
1786.80879	0.96764
1784.75499	0.96743
1782.70119	0.96711
1780.64738	0.96699
1778.59358	0.96701
1776.53978	0.96703
1774.48597	0.96709
1772.43217	0.96716
1770.37837	0.96682
1768.32456	0.96613
1766.27076	0.96539
1764.21696	0.96479
1762.16315	0.96430
1760.10935	0.96346
1758.05555	0.96222
1756.00174	0.96044
1753.94794	0.95841
1751.89414	0.95651
1749.84033	0.95471
1747.78653	0.95306
1745.73273	0.95155
1743.67892	0.95015
1741.62512	0.94935
1739.57132	0.94929
1737.51751	0.94939
1735.46371	0.94959
1733.40991	0.94964
1731.35611	0.94915
1729.30230	0.94869
1727.24850	0.94876
1725.19470	0.94927
1723.14089	0.94956
1721.08709	0.94963
1719.03329	0.94964
1716.97948	0.94907
1714.92568	0.94857
1712.87188	0.94838
1710.81807	0.94818
1708.76427	0.94817
1706.71047	0.94789
1704.65666	0.94724
1702.60286	0.94678
1700.54906	0.94577
1698.49525	0.94394
1696.44145	0.94215
1694.38765	0.93957
1692.33384	0.93693
1690.28004	0.93455
1688.22624	0.93224
1686.17243	0.93028
1684.11863	0.92800
1682.06483	0.92567
1680.01103	0.92420
1677.95722	0.92294
1675.90342	0.92141
1673.84962	0.91997
1671.79581	0.91891
1669.74201	0.91700
1667.68821	0.91418
1665.63440	0.91218
1663.58060	0.91070
1661.52680	0.90901
1659.47299	0.90728
1657.41919	0.90620
1655.36539	0.90602
1653.31158	0.90509
1651.25778	0.90284
1649.20398	0.90181
1647.15017	0.90108
1645.09637	0.90056
1643.04257	0.90057
1640.98876	0.90057
1638.93496	0.90056
1636.88116	0.90041
1634.82735	0.89945
1632.77355	0.89866
1630.71975	0.89848
1628.66594	0.89860
1626.61214	0.89889
1624.55834	0.89914
1622.50454	0.89932
1620.45073	0.89989
1618.39693	0.90155
1616.34313	0.90474
1614.28932	0.90762
1612.23552	0.90957
1610.18172	0.91159
1608.12791	0.91348
1606.07411	0.91486
1604.02031	0.91623
1601.96650	0.91752
1599.91270	0.91817
1597.85890	0.91846
1595.80509	0.91909
1593.75129	0.92003
1591.69749	0.92060
1589.64368	0.92099
1587.58988	0.92158
1585.53608	0.92201
1583.48227	0.92230
1581.42847	0.92278
1579.37467	0.92344
1577.32086	0.92403
1575.26706	0.92420
1573.21326	0.92419
1571.15945	0.92434
1569.10565	0.92441
1567.05185	0.92415
1564.99805	0.92389
1562.94424	0.92383
1560.89044	0.92394
1558.83664	0.92407
1556.78283	0.92429
1554.72903	0.92479
1552.67523	0.92533
1550.62142	0.92553
1548.56762	0.92561
1546.51382	0.92610
1544.46001	0.92682
1542.40621	0.92747
1540.35241	0.92822
1538.29860	0.92887
1536.24480	0.92972
1534.19100	0.93135
1532.13719	0.93308
1530.08339	0.93393
1528.02959	0.93479
1525.97578	0.93628
1523.92198	0.93772
1521.86818	0.93856
1519.81437	0.93912
1517.76057	0.93983
1515.70677	0.94047
1513.65297	0.94099
1511.59916	0.94188
1509.54536	0.94325
1507.49156	0.94470
1505.43775	0.94515
1503.38395	0.94526
1501.33015	0.94589
1499.27634	0.94686
1497.22254	0.94765
1495.16874	0.94812
1493.11493	0.94865
1491.06113	0.94931
1489.00733	0.94964
1486.95352	0.94940
1484.89972	0.94892
1482.84592	0.94808
1480.79211	0.94661
1478.73831	0.94321
1476.68451	0.93302
1474.63070	0.91144
1472.57690	0.88843
1470.52310	0.88376
1468.46929	0.88854
1466.41549	0.89004
1464.36169	0.88400
1462.30788	0.87938
1460.25408	0.88454
1458.20028	0.89728
1456.14648	0.90977
1454.09267	0.91534
1452.03887	0.91847
1449.98507	0.92084
1447.93126	0.92237
1445.87746	0.92326
1443.82366	0.92393
1441.76985	0.92450
1439.71605	0.92492
1437.66225	0.92548
1435.60844	0.92626
1433.55464	0.92687
1431.50084	0.92753
1429.44703	0.92817
1427.39323	0.92855
1425.33943	0.92894
1423.28562	0.92934
1421.23182	0.92962
1419.17802	0.92966
1417.12421	0.92924
1415.07041	0.92902
1413.01661	0.92918
1410.96280	0.92955
1408.90900	0.93004
1406.85520	0.93057
1404.80139	0.93124
1402.74759	0.93193
1400.69379	0.93244
1398.63999	0.93307
1396.58618	0.93368
1394.53238	0.93391
1392.47858	0.93405
1390.42477	0.93429
1388.37097	0.93435
1386.31717	0.93407
1384.26336	0.93374
1382.20956	0.93330
1380.15576	0.93276
1378.10195	0.93252
1376.04815	0.93281
1373.99435	0.93351
1371.94054	0.93391
1369.88674	0.93388
1367.83294	0.93383
1365.77913	0.93403
1363.72533	0.93487
1361.67153	0.93615
1359.61772	0.93689
1357.56392	0.93708
1355.51012	0.93721
1353.45631	0.93746
1351.40251	0.93783
1349.34871	0.93815
1347.29491	0.93843
1345.24110	0.93871
1343.18730	0.93887
1341.13350	0.93914
1339.07969	0.93946
1337.02589	0.93956
1334.97209	0.93955
1332.91828	0.93949
1330.86448	0.93933
1328.81068	0.93899
1326.75687	0.93861
1324.70307	0.93837
1322.64927	0.93807
1320.59546	0.93770
1318.54166	0.93767
1316.48786	0.93785
1314.43405	0.93794
1312.38025	0.93787
1310.32645	0.93781
1308.27264	0.93784
1306.21884	0.93780
1304.16504	0.93768
1302.11123	0.93772
1300.05743	0.93789
1298.00363	0.93797
1295.94982	0.93804
1293.89602	0.93815
1291.84222	0.93802
1289.78842	0.93751
1287.73461	0.93700
1285.68081	0.93696
1283.62701	0.93708
1281.57320	0.93670
1279.51940	0.93578
1277.46560	0.93488
1275.41179	0.93424
1273.35799	0.93373
1271.30419	0.93323
1269.25038	0.93259
1267.19658	0.93172
1265.14278	0.93087
1263.08897	0.93029
1261.03517	0.92988
1258.98137	0.92940
1256.92756	0.92888
1254.87376	0.92846
1252.81996	0.92788
1250.76615	0.92703
1248.71235	0.92611
1246.65855	0.92517
1244.60474	0.92427
1242.55094	0.92339
1240.49714	0.92243
1238.44334	0.92146
1236.38953	0.92083
1234.33573	0.92064
1232.28193	0.92053
1230.22812	0.92022
1228.17432	0.91959
1226.12052	0.91865
1224.06671	0.91775
1222.01291	0.91698
1219.95911	0.91599
1217.90530	0.91478
1215.85150	0.91371
1213.79770	0.91290
1211.74389	0.91206
1209.69009	0.91086
1207.63629	0.90935
1205.58248	0.90765
1203.52868	0.90576
1201.47488	0.90369
1199.42107	0.90163
1197.36727	0.89969
1195.31347	0.89747
1193.25966	0.89494
1191.20586	0.89229
1189.15206	0.88945
1187.09825	0.88630
1185.04445	0.88271
1182.99065	0.87899
1180.93685	0.87524
1178.88304	0.87085
1176.82924	0.86586
1174.77544	0.86118
1172.72163	0.85702
1170.66783	0.85288
1168.61403	0.84849
1166.56022	0.84402
1164.50642	0.83989
1162.45262	0.83617
1160.39881	0.83274
1158.34501	0.82979
1156.29121	0.82681
1154.23740	0.82328
1152.18360	0.81972
1150.12980	0.81647
1148.07599	0.81332
1146.02219	0.81025
1143.96839	0.80723
1141.91458	0.80407
1139.86078	0.80079
1137.80698	0.79741
1135.75317	0.79388
1133.69937	0.79015
1131.64557	0.78590
1129.59176	0.78065
1127.53796	0.77490
1125.48416	0.76902
1123.43036	0.76235
1121.37655	0.75485
1119.32275	0.74744
1117.26895	0.74040
1115.21514	0.73364
1113.16134	0.72749
1111.10754	0.72217
1109.05373	0.71757
1106.99993	0.71339
1104.94613	0.70926
1102.89232	0.70523
1100.83852	0.70139
1098.78472	0.69791
1096.73091	0.69517
1094.67711	0.69294
1092.62331	0.69059
1090.56950	0.68836
1088.51570	0.68684
1086.46190	0.68540
1084.40809	0.68331
1082.35429	0.68101
1080.30049	0.67887
1078.24668	0.67681
1076.19288	0.67446
1074.13908	0.67133
1072.08528	0.66769
1070.03147	0.66374
1067.97767	0.65872
1065.92387	0.65261
1063.87006	0.64596
1061.81626	0.63868
1059.76246	0.63081
1057.70865	0.62270
1055.65485	0.61419
1053.60105	0.60462
1051.54724	0.59405
1049.49344	0.58307
1047.43964	0.57200
1045.38583	0.56074
1043.33203	0.54922
1041.27823	0.53767
1039.22442	0.52652
1037.17062	0.51602
1035.11682	0.50620
1033.06301	0.49767
1031.00921	0.49123
1028.95541	0.48701
1026.90160	0.48444
1024.84780	0.48293
1022.79400	0.48201
1020.74019	0.48090
1018.68639	0.47910
1016.63259	0.47674
1014.57879	0.47394
1012.52498	0.47055
1010.47118	0.46661
1008.41738	0.46252
1006.36357	0.45923
1004.30977	0.45740
1002.25597	0.45713
1000.20216	0.45867
998.14836	0.46223
996.09456	0.46736
994.04075	0.47348
991.98695	0.48060
989.93315	0.48881
987.87934	0.49780
985.82554	0.50748
983.77174	0.51799
981.71793	0.52892
979.66413	0.53990
977.61033	0.55135
975.55652	0.56321
973.50272	0.57479
971.44892	0.58601
969.39511	0.59732
967.34131	0.60880
965.28751	0.61997
963.23371	0.63026
961.17990	0.63950
959.12610	0.64803
957.07230	0.65591
955.01849	0.66289
952.96469	0.66936
950.91089	0.67558
948.85708	0.68098
946.80328	0.68524
944.74948	0.68885
942.69567	0.69240
940.64187	0.69588
938.58807	0.69914
936.53426	0.70198
934.48046	0.70419
932.42666	0.70600
930.37285	0.70763
928.31905	0.70900
926.26525	0.70953
924.21144	0.70875
922.15764	0.70687
920.10384	0.70383
918.05003	0.69923
915.99623	0.69356
913.94243	0.68885
911.88862	0.68752
909.83482	0.69041
907.78102	0.69685
905.72722	0.70605
903.67341	0.71691
901.61961	0.72796
899.56581	0.73854
897.51200	0.74836
895.45820	0.75682
893.40440	0.76377
891.35059	0.76960
889.29679	0.77489
887.24299	0.78004
885.18918	0.78445
883.13538	0.78756
881.08158	0.79019
879.02777	0.79304
876.97397	0.79623
874.92017	0.79967
872.86636	0.80323
870.81256	0.80702
868.75876	0.81101
866.70495	0.81516
864.65115	0.81932
862.59735	0.82312
860.54354	0.82634
858.48974	0.82936
856.43594	0.83242
854.38213	0.83505
852.32833	0.83779
850.27453	0.84108
848.22073	0.84355
846.16692	0.84487
844.11312	0.84572
842.05932	0.84574
840.00551	0.84521
837.95171	0.84503
835.89791	0.84477
833.84410	0.84388
831.79030	0.84323
829.73650	0.84279
827.68269	0.84178
825.62889	0.84097
823.57509	0.84101
821.52128	0.84108
819.46748	0.84091
817.41368	0.84104
815.35987	0.84073
813.30607	0.83915
811.25227	0.83707
809.19846	0.83505
807.14466	0.83193
805.09086	0.82658
803.03705	0.82055
800.98325	0.81627
798.92945	0.81377
796.87565	0.81216
794.82184	0.81128
792.76804	0.81082
790.71424	0.81056
788.66043	0.81079
786.60663	0.81137
784.55283	0.81177
782.49902	0.81135
780.44522	0.80997
778.39142	0.80883
776.33761	0.80951
774.28381	0.81176
772.23001	0.81368
770.17620	0.81411
768.12240	0.81311
766.06860	0.81121
764.01479	0.80893
761.96099	0.80664
759.90719	0.80440
757.85338	0.80212
755.79958	0.80065
753.74578	0.80041
751.69197	0.80033
749.63817	0.80001
747.58437	0.80001
745.53056	0.80049
743.47676	0.80122
741.42296	0.80231
739.36916	0.80417
737.31535	0.80578
735.26155	0.80294
733.20775	0.79073
731.15394	0.77381
729.10014	0.76709
727.04634	0.77290
724.99253	0.77760
722.93873	0.76992
720.88493	0.74813
718.83112	0.72714
716.77732	0.72540
714.72352	0.74066
712.66971	0.75828
710.61591	0.76896
708.56211	0.77247
706.50830	0.77182
704.45450	0.76864
702.40070	0.76360
700.34689	0.75808
698.29309	0.75318
696.23929	0.74873
694.18548	0.74550
692.13168	0.74462
690.07788	0.74476
688.02408	0.74441
685.97027	0.74380
683.91647	0.74327
681.86267	0.74302
679.80886	0.74314
677.75506	0.74328
675.70126	0.74284
673.64745	0.74192
671.59365	0.74121
669.53985	0.74128
667.48604	0.74256
665.43224	0.74523
663.37844	0.74884
661.32463	0.75193
659.27083	0.75308
657.21703	0.75253
655.16322	0.75121
653.10942	0.74989
651.05562	0.74881
649.00181	0.74752
646.94801	0.74597
644.89421	0.74555
642.84040	0.74617
640.78660	0.74648
638.73280	0.74668
636.67899	0.74695
634.62519	0.74685
632.57139	0.74650
630.51759	0.74566
628.46378	0.74521
626.40998	0.74543
624.35618	0.74442
622.30237	0.74233
620.24857	0.73972
618.19477	0.73572
616.14096	0.73152
614.08716	0.72846
612.03336	0.72522
609.97955	0.72000
607.92575	0.71361
605.87195	0.70858
603.81814	0.70509
601.76434	0.70211
599.71054	0.69916
597.65673	0.69624
595.60293	0.69414
593.54913	0.69246
591.49532	0.69012
589.44152	0.68783
587.38772	0.68541
585.33391	0.68217
583.28011	0.67872
581.22631	0.67482
579.17250	0.67043
577.11870	0.66658
575.06490	0.66406
573.01110	0.66247
570.95729	0.65952
568.90349	0.65324
566.84969	0.64600
564.79588	0.64095
562.74208	0.63667
560.68828	0.63227
558.63447	0.62757
556.58067	0.62052
554.52687	0.61240
552.47306	0.60553
550.41926	0.59918
548.36546	0.59183
546.31165	0.58324
544.25785	0.57398
542.20405	0.56329
540.15024	0.55191
538.09644	0.54307
536.04264	0.53730
533.98883	0.53211
531.93503	0.52693
529.88123	0.52293
527.82742	0.52051
525.77362	0.52033
523.71982	0.52276
521.66602	0.52633
519.61221	0.53035
517.55841	0.53620
515.50461	0.54400
513.45080	0.55094
511.39700	0.55524
509.34320	0.55848
507.28939	0.56271
505.23559	0.56742
503.18179	0.57090
501.12798	0.57200
499.07418	0.57218
497.02038	0.57399
494.96657	0.57683
492.91277	0.57704
490.85897	0.57287
488.80516	0.56687
486.75136	0.56035
484.69756	0.55215
482.64375	0.54255
480.58995	0.53048
478.53615	0.51410
476.48234	0.49633
474.42854	0.47921
472.37474	0.46072
470.32093	0.44399
468.26713	0.43200
466.21333	0.42364
464.15953	0.41957
462.10572	0.42046
460.05192	0.42609
457.99812	0.43453
455.94431	0.44199
453.89051	0.44822
451.83671	0.45399
449.78290	0.45725
447.72910	0.45929
445.67530	0.46295
443.62149	0.46630
441.56769	0.46767
439.51389	0.46649
437.46008	0.46192
435.40628	0.45604
433.35248	0.45035
431.29867	0.44448
429.24487	0.44129
427.19107	0.44377
425.13726	0.44745
423.08346	0.44890
421.02966	0.45191
418.97585	0.45707
416.92205	0.46226
414.86825	0.47018
412.81445	0.48049
410.76064	0.48841
408.70684	0.49333
406.65304	0.49988
404.59923	0.50999
402.54543	0.52237
400.49163	0.53609
398.43782	0.54693
