3996.70104	0.97656
3994.64724	0.97664
3992.59344	0.97661
3990.53964	0.97646
3988.48583	0.97646
3986.43203	0.97707
3984.37823	0.97772
3982.32442	0.97761
3980.27062	0.97704
3978.21682	0.97684
3976.16301	0.97704
3974.10921	0.97760
3972.05541	0.97815
3970.00160	0.97768
3967.94780	0.97661
3965.89400	0.97613
3963.84019	0.97610
3961.78639	0.97588
3959.73259	0.97534
3957.67878	0.97499
3955.62498	0.97520
3953.57118	0.97562
3951.51737	0.97620
3949.46357	0.97693
3947.40977	0.97736
3945.35596	0.97738
3943.30216	0.97716
3941.24836	0.97714
3939.19455	0.97742
3937.14075	0.97754
3935.08695	0.97767
3933.03315	0.97792
3930.97934	0.97756
3928.92554	0.97664
3926.87174	0.97630
3924.81793	0.97684
3922.76413	0.97737
3920.71033	0.97722
3918.65652	0.97669
3916.60272	0.97650
3914.54892	0.97676
3912.49511	0.97685
3910.44131	0.97684
3908.38751	0.97707
3906.33370	0.97731
3904.27990	0.97722
3902.22610	0.97694
3900.17229	0.97693
3898.11849	0.97713
3896.06469	0.97703
3894.01088	0.97651
3891.95708	0.97638
3889.90328	0.97690
3887.84947	0.97672
3885.79567	0.97613
3883.74187	0.97637
3881.68807	0.97693
3879.63426	0.97727
3877.58046	0.97723
3875.52666	0.97695
3873.47285	0.97702
3871.41905	0.97769
3869.36525	0.97827
3867.31144	0.97803
3865.25764	0.97775
3863.20384	0.97797
3861.15003	0.97799
3859.09623	0.97748
3857.04243	0.97703
3854.98862	0.97733
3852.93482	0.97785
3850.88102	0.97792
3848.82721	0.97762
3846.77341	0.97703
3844.71961	0.97709
3842.66580	0.97800
3840.61200	0.97861
3838.55820	0.97856
3836.50439	0.97805
3834.45059	0.97758
3832.39679	0.97760
3830.34298	0.97752
3828.28918	0.97759
3826.23538	0.97840
3824.18158	0.97880
3822.12777	0.97812
3820.07397	0.97732
3818.02017	0.97727
3815.96636	0.97779
3813.91256	0.97825
3811.85876	0.97850
3809.80495	0.97879
3807.75115	0.97923
3805.69735	0.97973
3803.64354	0.97957
3801.58974	0.97846
3799.53594	0.97717
3797.48213	0.97640
3795.42833	0.97657
3793.37453	0.97744
3791.32072	0.97790
3789.26692	0.97775
3787.21312	0.97769
3785.15931	0.97786
3783.10551	0.97803
3781.05171	0.97863
3778.99790	0.97943
3776.94410	0.97950
3774.89030	0.97897
3772.83650	0.97831
3770.78269	0.97808
3768.72889	0.97859
3766.67509	0.97897
3764.62128	0.97878
3762.56748	0.97870
3760.51368	0.97892
3758.45987	0.97925
3756.40607	0.97960
3754.35227	0.97984
3752.29846	0.97956
3750.24466	0.97852
3748.19086	0.97802
3746.13705	0.97810
3744.08325	0.97847
3742.02945	0.97904
3739.97564	0.97911
3737.92184	0.97913
3735.86804	0.97957
3733.81423	0.97955
3731.76043	0.97864
3729.70663	0.97788
3727.65282	0.97811
3725.59902	0.97893
3723.54522	0.97930
3721.49141	0.97904
3719.43761	0.97821
3717.38381	0.97731
3715.33001	0.97722
3713.27620	0.97744
3711.22240	0.97710
3709.16860	0.97676
3707.11479	0.97635
3705.06099	0.97549
3703.00719	0.97446
3700.95338	0.97364
3698.89958	0.97338
3696.84578	0.97360
3694.79197	0.97406
3692.73817	0.97430
3690.68437	0.97415
3688.63056	0.97417
3686.57676	0.97433
3684.52296	0.97425
3682.46915	0.97433
3680.41535	0.97445
3678.36155	0.97364
3676.30774	0.97227
3674.25394	0.97270
3672.20014	0.97375
3670.14633	0.97368
3668.09253	0.97332
3666.03873	0.97326
3663.98492	0.97322
3661.93112	0.97300
3659.87732	0.97227
3657.82352	0.97141
3655.76971	0.97144
3653.71591	0.97198
3651.66211	0.97219
3649.60830	0.97150
3647.55450	0.97025
3645.50070	0.97021
3643.44689	0.97056
3641.39309	0.97048
3639.33929	0.96990
3637.28548	0.96901
3635.23168	0.96833
3633.17788	0.96792
3631.12407	0.96716
3629.07027	0.96592
3627.01647	0.96567
3624.96266	0.96616
3622.90886	0.96628
3620.85506	0.96615
3618.80125	0.96559
3616.74745	0.96438
3614.69365	0.96346
3612.63984	0.96324
3610.58604	0.96388
3608.53224	0.96522
3606.47844	0.96551
3604.42463	0.96428
3602.37083	0.96287
3600.31703	0.96195
3598.26322	0.96167
3596.20942	0.96145
3594.15562	0.96116
3592.10181	0.96156
3590.04801	0.96223
3587.99421	0.96202
3585.94040	0.96086
3583.88660	0.95971
3581.83280	0.95924
3579.77899	0.95951
3577.72519	0.95947
3575.67139	0.95847
3573.61758	0.95747
3571.56378	0.95760
3569.50998	0.95840
3567.45617	0.95846
3565.40237	0.95772
3563.34857	0.95718
3561.29476	0.95656
3559.24096	0.95549
3557.18716	0.95449
3555.13335	0.95398
3553.07955	0.95355
3551.02575	0.95273
3548.97195	0.95206
3546.91814	0.95215
3544.86434	0.95231
3542.81054	0.95185
3540.75673	0.95114
3538.70293	0.95051
3536.64913	0.95009
3534.59532	0.94998
3532.54152	0.95021
3530.48772	0.95014
3528.43391	0.94939
3526.38011	0.94897
3524.32631	0.94931
3522.27250	0.94949
3520.21870	0.94912
3518.16490	0.94875
3516.11109	0.94849
3514.05729	0.94825
3512.00349	0.94803
3509.94968	0.94735
3507.89588	0.94654
3505.84208	0.94650
3503.78827	0.94681
3501.73447	0.94687
3499.68067	0.94681
3497.62687	0.94634
3495.57306	0.94540
3493.51926	0.94475
3491.46546	0.94457
3489.41165	0.94434
3487.35785	0.94414
3485.30405	0.94414
3483.25024	0.94384
3481.19644	0.94327
3479.14264	0.94310
3477.08883	0.94303
3475.03503	0.94271
3472.98123	0.94221
3470.92742	0.94173
3468.87362	0.94135
3466.81982	0.94093
3464.76601	0.94032
3462.71221	0.93989
3460.65841	0.93991
3458.60460	0.94006
3456.55080	0.94011
3454.49700	0.93968
3452.44319	0.93903
3450.38939	0.93855
3448.33559	0.93795
3446.28178	0.93767
3444.22798	0.93799
3442.17418	0.93824
3440.12038	0.93823
3438.06657	0.93816
3436.01277	0.93808
3433.95897	0.93802
3431.90516	0.93777
3429.85136	0.93730
3427.79756	0.93659
3425.74375	0.93569
3423.68995	0.93512
3421.63615	0.93523
3419.58234	0.93547
3417.52854	0.93507
3415.47474	0.93436
3413.42093	0.93408
3411.36713	0.93399
3409.31333	0.93384
3407.25952	0.93394
3405.20572	0.93429
3403.15192	0.93442
3401.09811	0.93435
3399.04431	0.93420
3396.99051	0.93373
3394.93670	0.93332
3392.88290	0.93321
3390.82910	0.93327
3388.77529	0.93337
3386.72149	0.93305
3384.66769	0.93267
3382.61389	0.93269
3380.56008	0.93281
3378.50628	0.93274
3376.45248	0.93239
3374.39867	0.93200
3372.34487	0.93183
3370.29107	0.93161
3368.23726	0.93155
3366.18346	0.93185
3364.12966	0.93183
3362.07585	0.93164
3360.02205	0.93192
3357.96825	0.93231
3355.91444	0.93222
3353.86064	0.93195
3351.80684	0.93185
3349.75303	0.93167
3347.69923	0.93133
3345.64543	0.93115
3343.59162	0.93101
3341.53782	0.93061
3339.48402	0.93038
3337.43021	0.93060
3335.37641	0.93100
3333.32261	0.93120
3331.26881	0.93136
3329.21500	0.93160
3327.16120	0.93181
3325.10740	0.93228
3323.05359	0.93272
3320.99979	0.93236
3318.94599	0.93161
3316.89218	0.93161
3314.83838	0.93192
3312.78458	0.93138
3310.73077	0.93084
3308.67697	0.93145
3306.62317	0.93245
3304.56936	0.93285
3302.51556	0.93264
3300.46176	0.93186
3298.40795	0.93118
3296.35415	0.93166
3294.30035	0.93271
3292.24654	0.93306
3290.19274	0.93268
3288.13894	0.93197
3286.08513	0.93151
3284.03133	0.93187
3281.97753	0.93251
3279.92372	0.93275
3277.86992	0.93245
3275.81612	0.93181
3273.76232	0.93165
3271.70851	0.93245
3269.65471	0.93349
3267.60091	0.93391
3265.54710	0.93395
3263.49330	0.93413
3261.43950	0.93430
3259.38569	0.93426
3257.33189	0.93425
3255.27809	0.93413
3253.22428	0.93371
3251.17048	0.93350
3249.11668	0.93354
3247.06287	0.93357
3245.00907	0.93385
3242.95527	0.93434
3240.90146	0.93469
3238.84766	0.93480
3236.79386	0.93469
3234.74005	0.93444
3232.68625	0.93473
3230.63245	0.93535
3228.57864	0.93550
3226.52484	0.93554
3224.47104	0.93576
3222.41724	0.93609
3220.36343	0.93637
3218.30963	0.93636
3216.25583	0.93638
3214.20202	0.93668
3212.14822	0.93693
3210.09442	0.93694
3208.04061	0.93700
3205.98681	0.93726
3203.93301	0.93742
3201.87920	0.93741
3199.82540	0.93760
3197.77160	0.93796
3195.71779	0.93824
3193.66399	0.93845
3191.61019	0.93885
3189.55638	0.93915
3187.50258	0.93907
3185.44878	0.93932
3183.39497	0.93976
3181.34117	0.93982
3179.28737	0.93994
3177.23356	0.94022
3175.17976	0.94047
3173.12596	0.94076
3171.07215	0.94099
3169.01835	0.94148
3166.96455	0.94214
3164.91075	0.94196
3162.85694	0.94133
3160.80314	0.94162
3158.74934	0.94246
3156.69553	0.94311
3154.64173	0.94360
3152.58793	0.94380
3150.53412	0.94386
3148.48032	0.94388
3146.42652	0.94398
3144.37271	0.94450
3142.31891	0.94485
3140.26511	0.94470
3138.21130	0.94467
3136.15750	0.94500
3134.10370	0.94556
3132.04989	0.94578
3129.99609	0.94549
3127.94229	0.94560
3125.88848	0.94633
3123.83468	0.94675
3121.78088	0.94632
3119.72707	0.94570
3117.67327	0.94570
3115.61947	0.94618
3113.56566	0.94676
3111.51186	0.94721
3109.45806	0.94764
3107.40426	0.94820
3105.35045	0.94851
3103.29665	0.94830
3101.24285	0.94795
3099.18904	0.94785
3097.13524	0.94828
3095.08144	0.94911
3093.02763	0.94967
3090.97383	0.94979
3088.92003	0.94973
3086.86622	0.94964
3084.81242	0.94962
3082.75862	0.94993
3080.70481	0.95050
3078.65101	0.95067
3076.59721	0.95044
3074.54340	0.95041
3072.48960	0.95081
3070.43580	0.95136
3068.38199	0.95132
3066.32819	0.95107
3064.27439	0.95148
3062.22058	0.95205
3060.16678	0.95218
3058.11298	0.95203
3056.05918	0.95180
3054.00537	0.95196
3051.95157	0.95259
3049.89777	0.95316
3047.84396	0.95365
3045.79016	0.95392
3043.73636	0.95338
3041.68255	0.95276
3039.62875	0.95338
3037.57495	0.95452
3035.52114	0.95487
3033.46734	0.95475
3031.41354	0.95471
3029.35973	0.95454
3027.30593	0.95424
3025.25213	0.95442
3023.19832	0.95501
3021.14452	0.95528
3019.09072	0.95527
3017.03691	0.95538
3014.98311	0.95527
3012.92931	0.95506
3010.87550	0.95516
3008.82170	0.95501
3006.76790	0.95435
3004.71409	0.95391
3002.66029	0.95393
3000.60649	0.95381
2998.55269	0.95372
2996.49888	0.95427
2994.44508	0.95472
2992.39128	0.95419
2990.33747	0.95330
2988.28367	0.95276
2986.22987	0.95247
2984.17606	0.95213
2982.12226	0.95179
2980.06846	0.95150
2978.01465	0.95112
2975.96085	0.95076
2973.90705	0.95027
2971.85324	0.94908
2969.79944	0.94736
2967.74564	0.94587
2965.69183	0.94497
2963.63803	0.94429
2961.58423	0.94333
2959.53042	0.94186
2957.47662	0.94014
2955.42282	0.93865
2953.36901	0.93715
2951.31521	0.93534
2949.26141	0.93350
2947.20761	0.93177
2945.15380	0.93001
2943.10000	0.92800
2941.04620	0.92590
2938.99239	0.92403
2936.93859	0.92220
2934.88479	0.92009
2932.83098	0.91782
2930.77718	0.91575
2928.72338	0.91388
2926.66957	0.91183
2924.61577	0.90955
2922.56197	0.90759
2920.50816	0.90611
2918.45436	0.90545
2916.40056	0.90635
2914.34675	0.90892
2912.29295	0.91268
2910.23915	0.91647
2908.18534	0.91938
2906.13154	0.92174
2904.07774	0.92398
2902.02393	0.92611
2899.97013	0.92806
2897.91633	0.92974
2895.86252	0.93124
2893.80872	0.93279
2891.75492	0.93425
2889.70112	0.93527
2887.64731	0.93614
2885.59351	0.93733
2883.53971	0.93844
2881.48590	0.93897
2879.43210	0.93925
2877.37830	0.93964
2875.32449	0.93984
2873.27069	0.93974
2871.21689	0.93936
2869.16308	0.93832
2867.10928	0.93689
2865.05548	0.93557
2863.00167	0.93406
2860.94787	0.93221
2858.89407	0.93002
2856.84026	0.92731
2854.78646	0.92429
2852.73266	0.92156
2850.67885	0.92049
2848.62505	0.92236
2846.57125	0.92660
2844.51744	0.93182
2842.46364	0.93676
2840.40984	0.94068
2838.35603	0.94384
2836.30223	0.94646
2834.24843	0.94847
2832.19463	0.95002
2830.14082	0.95129
2828.08702	0.95242
2826.03322	0.95340
2823.97941	0.95415
2821.92561	0.95464
2819.87181	0.95511
2817.81800	0.95567
2815.76420	0.95612
2813.71040	0.95656
2811.65659	0.95720
2809.60279	0.95784
2807.54899	0.95809
2805.49518	0.95812
2803.44138	0.95853
2801.38758	0.95891
2799.33377	0.95870
2797.27997	0.95864
2795.22617	0.95910
2793.17236	0.95969
2791.11856	0.96023
2789.06476	0.96039
2787.01095	0.96032
2784.95715	0.96068
2782.90335	0.96121
2780.84955	0.96136
2778.79574	0.96135
2776.74194	0.96155
2774.68814	0.96179
2772.63433	0.96184
2770.58053	0.96193
2768.52673	0.96210
2766.47292	0.96211
2764.41912	0.96210
2762.36532	0.96214
2760.31151	0.96217
2758.25771	0.96233
2756.20391	0.96241
2754.15010	0.96236
2752.09630	0.96251
2750.04250	0.96252
2747.98869	0.96250
2745.93489	0.96289
2743.88109	0.96313
2741.82728	0.96270
2739.77348	0.96240
2737.71968	0.96309
2735.66587	0.96406
2733.61207	0.96414
2731.55827	0.96373
2729.50446	0.96353
2727.45066	0.96341
2725.39686	0.96343
2723.34306	0.96362
2721.28925	0.96371
2719.23545	0.96373
2717.18165	0.96395
2715.12784	0.96421
2713.07404	0.96413
2711.02024	0.96401
2708.96643	0.96443
2706.91263	0.96513
2704.85883	0.96532
2702.80502	0.96503
2700.75122	0.96481
2698.69742	0.96489
2696.64361	0.96508
2694.58981	0.96501
2692.53601	0.96482
2690.48220	0.96476
2688.42840	0.96478
2686.37460	0.96493
2684.32079	0.96487
2682.26699	0.96470
2680.21319	0.96471
2678.15938	0.96453
2676.10558	0.96440
2674.05178	0.96476
2671.99797	0.96522
2669.94417	0.96535
2667.89037	0.96508
2665.83657	0.96497
2663.78276	0.96543
2661.72896	0.96586
2659.67516	0.96597
2657.62135	0.96591
2655.56755	0.96571
2653.51375	0.96560
2651.45994	0.96554
2649.40614	0.96537
2647.35234	0.96541
2645.29853	0.96589
2643.24473	0.96617
2641.19093	0.96609
2639.13712	0.96607
2637.08332	0.96617
2635.02952	0.96653
2632.97571	0.96695
2630.92191	0.96701
2628.86811	0.96670
2626.81430	0.96646
2624.76050	0.96665
2622.70670	0.96682
2620.65289	0.96672
2618.59909	0.96673
2616.54529	0.96704
2614.49149	0.96732
2612.43768	0.96744
2610.38388	0.96787
2608.33008	0.96867
2606.27627	0.96913
2604.22247	0.96882
2602.16867	0.96832
2600.11486	0.96842
2598.06106	0.96884
2596.00726	0.96874
2593.95345	0.96828
2591.89965	0.96834
2589.84585	0.96858
2587.79204	0.96831
2585.73824	0.96836
2583.68444	0.96917
2581.63063	0.96968
2579.57683	0.96954
2577.52303	0.96956
2575.46922	0.96995
2573.41542	0.97021
2571.36162	0.97019
2569.30781	0.97006
2567.25401	0.96983
2565.20021	0.96937
2563.14640	0.96922
2561.09260	0.96966
2559.03880	0.96970
2556.98500	0.96942
2554.93119	0.96969
2552.87739	0.96995
2550.82359	0.96990
2548.76978	0.96984
2546.71598	0.96966
2544.66218	0.96958
2542.60837	0.96995
2540.55457	0.97026
2538.50077	0.96994
2536.44696	0.96981
2534.39316	0.97044
2532.33936	0.97098
2530.28555	0.97066
2528.23175	0.96972
2526.17795	0.96931
2524.12414	0.96989
2522.07034	0.97071
2520.01654	0.97133
2517.96273	0.97161
2515.90893	0.97149
2513.85513	0.97116
2511.80132	0.97105
2509.74752	0.97135
2507.69372	0.97129
2505.63992	0.97068
2503.58611	0.96997
2501.53231	0.96948
2499.47851	0.96972
2497.42470	0.97025
2495.37090	0.97050
2493.31710	0.97061
2491.26329	0.97089
2489.20949	0.97147
2487.15569	0.97138
2485.10188	0.97081
2483.04808	0.97105
2480.99428	0.97162
2478.94047	0.97164
2476.88667	0.97134
2474.83287	0.97109
2472.77906	0.97122
2470.72526	0.97174
2468.67146	0.97197
2466.61765	0.97165
2464.56385	0.97130
2462.51005	0.97134
2460.45624	0.97152
2458.40244	0.97166
2456.34864	0.97207
2454.29483	0.97239
2452.24103	0.97217
2450.18723	0.97169
2448.13343	0.97118
2446.07962	0.97083
2444.02582	0.97088
2441.97202	0.97129
2439.91821	0.97210
2437.86441	0.97293
2435.81061	0.97299
2433.75680	0.97249
2431.70300	0.97225
2429.64920	0.97204
2427.59539	0.97179
2425.54159	0.97210
2423.48779	0.97253
2421.43398	0.97261
2419.38018	0.97252
2417.32638	0.97265
2415.27257	0.97288
2413.21877	0.97248
2411.16497	0.97168
2409.11116	0.97142
2407.05736	0.97198
2405.00356	0.97268
2402.94975	0.97292
2400.89595	0.97295
2398.84215	0.97322
2396.78834	0.97351
2394.73454	0.97340
2392.68074	0.97314
2390.62694	0.97336
2388.57313	0.97369
2386.51933	0.97345
2384.46553	0.97319
2382.41172	0.97322
2380.35792	0.97318
2378.30412	0.97292
2376.25031	0.97246
2374.19651	0.97170
2372.14271	0.97092
2370.08890	0.97078
2368.03510	0.97117
2365.98130	0.97156
2363.92749	0.97231
2361.87369	0.97361
2359.81989	0.97357
2357.76608	0.97154
2355.71228	0.97045
2353.65848	0.97114
2351.60467	0.97182
2349.55087	0.97198
2347.49707	0.97186
2345.44326	0.97169
2343.38946	0.97184
2341.33566	0.97177
2339.28186	0.97095
2337.22805	0.96969
2335.17425	0.96884
2333.12045	0.96932
2331.06664	0.97060
2329.01284	0.97116
2326.95904	0.97124
2324.90523	0.97125
2322.85143	0.97051
2320.79763	0.97029
2318.74382	0.97145
2316.69002	0.97221
2314.63622	0.97226
2312.58241	0.97261
2310.52861	0.97325
2308.47481	0.97360
2306.42100	0.97352
2304.36720	0.97313
2302.31340	0.97267
2300.25959	0.97234
2298.20579	0.97245
2296.15199	0.97265
2294.09818	0.97188
2292.04438	0.97077
2289.99058	0.97086
2287.93677	0.97148
2285.88297	0.97152
2283.82917	0.97182
2281.77537	0.97281
2279.72156	0.97334
2277.66776	0.97302
2275.61396	0.97246
2273.56015	0.97215
2271.50635	0.97232
2269.45255	0.97291
2267.39874	0.97365
2265.34494	0.97337
2263.29114	0.97201
2261.23733	0.97145
2259.18353	0.97233
2257.12973	0.97306
2255.07592	0.97279
2253.02212	0.97309
2250.96832	0.97466
2248.91451	0.97582
2246.86071	0.97508
2244.80691	0.97333
2242.75310	0.97238
2240.69930	0.97232
2238.64550	0.97248
2236.59169	0.97258
2234.53789	0.97277
2232.48409	0.97310
2230.43029	0.97315
2228.37648	0.97277
2226.32268	0.97194
2224.26888	0.97122
2222.21507	0.97101
2220.16127	0.97113
2218.10747	0.97154
2216.05366	0.97255
2213.99986	0.97423
2211.94606	0.97583
2209.89225	0.97663
2207.83845	0.97587
2205.78465	0.97395
2203.73084	0.97296
2201.67704	0.97376
2199.62324	0.97519
2197.56943	0.97571
2195.51563	0.97528
2193.46183	0.97404
2191.40802	0.97258
2189.35422	0.97227
2187.30042	0.97294
2185.24661	0.97377
2183.19281	0.97439
2181.13901	0.97591
2179.08520	0.97687
2177.03140	0.97442
2174.97760	0.97321
2172.92380	0.97678
2170.86999	0.97860
2168.81619	0.97493
2166.76239	0.97241
2164.70858	0.97306
2162.65478	0.97137
2160.60098	0.97016
2158.54717	0.97356
2156.49337	0.97641
2154.43957	0.97686
2152.38576	0.97757
2150.33196	0.97857
2148.27816	0.97906
2146.22435	0.97870
2144.17055	0.97662
2142.11675	0.97388
2140.06294	0.97291
2138.00914	0.97391
2135.95534	0.97627
2133.90153	0.97894
2131.84773	0.97953
2129.79393	0.97836
2127.74012	0.97740
2125.68632	0.97653
2123.63252	0.97590
2121.57871	0.97627
2119.52491	0.97635
2117.47111	0.97502
2115.41731	0.97428
2113.36350	0.97442
2111.30970	0.97396
2109.25590	0.97356
2107.20209	0.97341
2105.14829	0.97372
2103.09449	0.97462
2101.04068	0.97513
2098.98688	0.97521
2096.93308	0.97542
2094.87927	0.97557
2092.82547	0.97488
2090.77167	0.97394
2088.71786	0.97401
2086.66406	0.97465
2084.61026	0.97426
2082.55645	0.97226
2080.50265	0.97076
2078.44885	0.97147
2076.39504	0.97337
2074.34124	0.97539
2072.28744	0.97640
2070.23363	0.97566
2068.17983	0.97406
2066.12603	0.97290
2064.07223	0.97295
2062.01842	0.97404
2059.96462	0.97568
2057.91082	0.97655
2055.85701	0.97642
2053.80321	0.97691
2051.74941	0.97715
2049.69560	0.97574
2047.64180	0.97415
2045.58800	0.97395
2043.53419	0.97433
2041.48039	0.97351
2039.42659	0.97234
2037.37278	0.97191
2035.31898	0.97024
2033.26518	0.96881
2031.21137	0.96988
2029.15757	0.97092
2027.10377	0.97083
2025.04996	0.97082
2022.99616	0.97169
2020.94236	0.97311
2018.88855	0.97412
2016.83475	0.97520
2014.78095	0.97736
2012.72714	0.97908
2010.67334	0.97789
2008.61954	0.97537
2006.56574	0.97461
2004.51193	0.97536
2002.45813	0.97671
2000.40433	0.97703
1998.35052	0.97669
1996.29672	0.97789
1994.24292	0.97826
1992.18911	0.97699
1990.13531	0.97563
1988.08151	0.97411
1986.02770	0.97413
1983.97390	0.97479
1981.92010	0.97386
1979.86629	0.97234
1977.81249	0.97183
1975.75869	0.97365
1973.70488	0.97676
1971.65108	0.97736
1969.59728	0.97493
1967.54347	0.97357
1965.48967	0.97449
1963.43587	0.97591
1961.38206	0.97711
1959.32826	0.97709
1957.27446	0.97686
1955.22066	0.97748
1953.16685	0.97778
1951.11305	0.97803
1949.05925	0.97953
1947.00544	0.98051
1944.95164	0.97886
1942.89784	0.97706
1940.84403	0.97746
1938.79023	0.97882
1936.73643	0.97932
1934.68262	0.97903
1932.62882	0.97894
1930.57502	0.97887
1928.52121	0.97884
1926.46741	0.97918
1924.41361	0.98006
1922.35980	0.98082
1920.30600	0.98054
1918.25220	0.97930
1916.19839	0.97805
1914.14459	0.97794
1912.09079	0.97861
1910.03698	0.97905
1907.98318	0.97867
1905.92938	0.97726
1903.87557	0.97571
1901.82177	0.97554
1899.76797	0.97640
1897.71417	0.97710
1895.66036	0.97736
1893.60656	0.97715
1891.55276	0.97716
1889.49895	0.97787
1887.44515	0.97834
1885.39135	0.97809
1883.33754	0.97768
1881.28374	0.97776
1879.22994	0.97857
1877.17613	0.97919
1875.12233	0.97902
1873.06853	0.97848
1871.01472	0.97788
1868.96092	0.97784
1866.90712	0.97864
1864.85331	0.97908
1862.79951	0.97883
1860.74571	0.97858
1858.69190	0.97816
1856.63810	0.97795
1854.58430	0.97871
1852.53049	0.97957
1850.47669	0.97942
1848.42289	0.97842
1846.36908	0.97777
1844.31528	0.97834
1842.26148	0.97875
1840.20768	0.97822
1838.15387	0.97794
1836.10007	0.97833
1834.04627	0.97875
1831.99246	0.97872
1829.93866	0.97843
1827.88486	0.97876
1825.83105	0.97948
1823.77725	0.97942
1821.72345	0.97871
1819.66964	0.97829
1817.61584	0.97839
1815.56204	0.97883
1813.50823	0.97901
1811.45443	0.97865
1809.40063	0.97819
1807.34682	0.97784
1805.29302	0.97764
1803.23922	0.97767
1801.18541	0.97772
1799.13161	0.97762
1797.07781	0.97734
1795.02400	0.97686
1792.97020	0.97614
1790.91640	0.97528
1788.86260	0.97468
1786.80879	0.97443
1784.75499	0.97445
1782.70119	0.97440
1780.64738	0.97410
1778.59358	0.97378
1776.53978	0.97342
1774.48597	0.97266
1772.43217	0.97173
1770.37837	0.97112
1768.32456	0.97071
1766.27076	0.97020
1764.21696	0.96903
1762.16315	0.96705
1760.10935	0.96539
1758.05555	0.96427
1756.00174	0.96230
1753.94794	0.95914
1751.89414	0.95501
1749.84033	0.94998
1747.78653	0.94494
1745.73273	0.94048
1743.67892	0.93613
1741.62512	0.93173
1739.57132	0.92748
1737.51751	0.92408
1735.46371	0.92145
1733.40991	0.91912
1731.35611	0.91821
1729.30230	0.91826
1727.24850	0.91836
1725.19470	0.91827
1723.14089	0.91824
1721.08709	0.91836
1719.03329	0.91857
1716.97948	0.91908
1714.92568	0.91976
1712.87188	0.92056
1710.81807	0.92158
1708.76427	0.92247
1706.71047	0.92331
1704.65666	0.92437
1702.60286	0.92523
1700.54906	0.92623
1698.49525	0.92804
1696.44145	0.93002
1694.38765	0.93146
1692.33384	0.93217
1690.28004	0.93267
1688.22624	0.93306
1686.17243	0.93318
1684.11863	0.93253
1682.06483	0.93179
1680.01103	0.93178
1677.95722	0.93173
1675.90342	0.93108
1673.84962	0.93009
1671.79581	0.92951
1669.74201	0.92869
1667.68821	0.92744
1665.63440	0.92651
1663.58060	0.92529
1661.52680	0.92335
1659.47299	0.92200
1657.41919	0.92144
1655.36539	0.92071
1653.31158	0.91919
1651.25778	0.91849
1649.20398	0.91833
1647.15017	0.91738
1645.09637	0.91637
1643.04257	0.91605
1640.98876	0.91572
1638.93496	0.91531
1636.88116	0.91479
1634.82735	0.91381
1632.77355	0.91317
1630.71975	0.91302
1628.66594	0.91297
1626.61214	0.91282
1624.55834	0.91249
1622.50454	0.91220
1620.45073	0.91220
1618.39693	0.91233
1616.34313	0.91237
1614.28932	0.91211
1612.23552	0.91171
1610.18172	0.91141
1608.12791	0.91121
1606.07411	0.91091
1604.02031	0.91053
1601.96650	0.91031
1599.91270	0.91005
1597.85890	0.90954
1595.80509	0.90913
1593.75129	0.90911
1591.69749	0.90924
1589.64368	0.90911
1587.58988	0.90892
1585.53608	0.90909
1583.48227	0.90939
1581.42847	0.90954
1579.37467	0.90978
1577.32086	0.91045
1575.26706	0.91118
1573.21326	0.91147
1571.15945	0.91159
1569.10565	0.91173
1567.05185	0.91217
1564.99805	0.91268
1562.94424	0.91305
1560.89044	0.91355
1558.83664	0.91427
1556.78283	0.91461
1554.72903	0.91489
1552.67523	0.91540
1550.62142	0.91608
1548.56762	0.91686
1546.51382	0.91772
1544.46001	0.91878
1542.40621	0.92016
1540.35241	0.92221
1538.29860	0.92408
1536.24480	0.92485
1534.19100	0.92544
1532.13719	0.92652
1530.08339	0.92778
1528.02959	0.92863
1525.97578	0.92869
1523.92198	0.92845
1521.86818	0.92848
1519.81437	0.92841
1517.76057	0.92801
1515.70677	0.92772
1513.65297	0.92776
1511.59916	0.92771
1509.54536	0.92775
1507.49156	0.92859
1505.43775	0.92977
1503.38395	0.93082
1501.33015	0.93223
1499.27634	0.93363
1497.22254	0.93470
1495.16874	0.93586
1493.11493	0.93694
1491.06113	0.93778
1489.00733	0.93849
1486.95352	0.93889
1484.89972	0.93918
1482.84592	0.93936
1480.79211	0.93883
1478.73831	0.93749
1476.68451	0.93539
1474.63070	0.93201
1472.57690	0.92698
1470.52310	0.92208
1468.46929	0.91838
1466.41549	0.91531
1464.36169	0.91352
1462.30788	0.91325
1460.25408	0.91332
1458.20028	0.91302
1456.14648	0.91251
1454.09267	0.91240
1452.03887	0.91271
1449.98507	0.91337
1447.93126	0.91401
1445.87746	0.91446
1443.82366	0.91489
1441.76985	0.91509
1439.71605	0.91488
1437.66225	0.91446
1435.60844	0.91400
1433.55464	0.91355
1431.50084	0.91315
1429.44703	0.91305
1427.39323	0.91291
1425.33943	0.91226
1423.28562	0.91136
1421.23182	0.91061
1419.17802	0.90976
1417.12421	0.90895
1415.07041	0.90871
1413.01661	0.90870
1410.96280	0.90878
1408.90900	0.90894
1406.85520	0.90907
1404.80139	0.90921
1402.74759	0.90936
1400.69379	0.90931
1398.63999	0.90876
1396.58618	0.90800
1394.53238	0.90761
1392.47858	0.90751
1390.42477	0.90730
1388.37097	0.90699
1386.31717	0.90684
1384.26336	0.90690
1382.20956	0.90734
1380.15576	0.90784
1378.10195	0.90782
1376.04815	0.90760
1373.99435	0.90771
1371.94054	0.90783
1369.88674	0.90752
1367.83294	0.90716
1365.77913	0.90726
1363.72533	0.90787
1361.67153	0.90883
1359.61772	0.90985
1357.56392	0.91075
1355.51012	0.91147
1353.45631	0.91222
1351.40251	0.91295
1349.34871	0.91340
1347.29491	0.91370
1345.24110	0.91400
1343.18730	0.91418
1341.13350	0.91422
1339.07969	0.91439
1337.02589	0.91460
1334.97209	0.91441
1332.91828	0.91395
1330.86448	0.91363
1328.81068	0.91364
1326.75687	0.91376
1324.70307	0.91358
1322.64927	0.91309
1320.59546	0.91258
1318.54166	0.91220
1316.48786	0.91193
1314.43405	0.91151
1312.38025	0.91096
1310.32645	0.91082
1308.27264	0.91106
1306.21884	0.91119
1304.16504	0.91123
1302.11123	0.91117
1300.05743	0.91096
1298.00363	0.91073
1295.94982	0.91047
1293.89602	0.91020
1291.84222	0.90983
1289.78842	0.90894
1287.73461	0.90761
1285.68081	0.90651
1283.62701	0.90578
1281.57320	0.90486
1279.51940	0.90342
1277.46560	0.90196
1275.41179	0.90075
1273.35799	0.89948
1271.30419	0.89810
1269.25038	0.89680
1267.19658	0.89579
1265.14278	0.89530
1263.08897	0.89510
1261.03517	0.89481
1258.98137	0.89466
1256.92756	0.89490
1254.87376	0.89496
1252.81996	0.89448
1250.76615	0.89384
1248.71235	0.89360
1246.65855	0.89366
1244.60474	0.89366
1242.55094	0.89360
1240.49714	0.89342
1238.44334	0.89319
1236.38953	0.89311
1234.33573	0.89311
1232.28193	0.89320
1230.22812	0.89339
1228.17432	0.89360
1226.12052	0.89382
1224.06671	0.89401
1222.01291	0.89402
1219.95911	0.89385
1217.90530	0.89336
1215.85150	0.89274
1213.79770	0.89222
1211.74389	0.89155
1209.69009	0.89100
1207.63629	0.89081
1205.58248	0.89029
1203.52868	0.88918
1201.47488	0.88827
1199.42107	0.88778
1197.36727	0.88706
1195.31347	0.88593
1193.25966	0.88460
1191.20586	0.88311
1189.15206	0.88150
1187.09825	0.87968
1185.04445	0.87746
1182.99065	0.87519
1180.93685	0.87303
1178.88304	0.87058
1176.82924	0.86786
1174.77544	0.86514
1172.72163	0.86245
1170.66783	0.85996
1168.61403	0.85759
1166.56022	0.85516
1164.50642	0.85292
1162.45262	0.85110
1160.39881	0.84989
1158.34501	0.84925
1156.29121	0.84853
1154.23740	0.84760
1152.18360	0.84711
1150.12980	0.84702
1148.07599	0.84662
1146.02219	0.84568
1143.96839	0.84490
1141.91458	0.84490
1139.86078	0.84529
1137.80698	0.84559
1135.75317	0.84569
1133.69937	0.84546
1131.64557	0.84513
1129.59176	0.84467
1127.53796	0.84390
1125.48416	0.84290
1123.43036	0.84184
1121.37655	0.84069
1119.32275	0.83902
1117.26895	0.83677
1115.21514	0.83446
1113.16134	0.83243
1111.10754	0.83033
1109.05373	0.82783
1106.99993	0.82536
1104.94613	0.82324
1102.89232	0.82126
1100.83852	0.81947
1098.78472	0.81789
1096.73091	0.81632
1094.67711	0.81491
1092.62331	0.81421
1090.56950	0.81398
1088.51570	0.81367
1086.46190	0.81351
1084.40809	0.81345
1082.35429	0.81311
1080.30049	0.81236
1078.24668	0.81144
1076.19288	0.81060
1074.13908	0.80975
1072.08528	0.80877
1070.03147	0.80747
1067.97767	0.80558
1065.92387	0.80343
1063.87006	0.80163
1061.81626	0.79989
1059.76246	0.79780
1057.70865	0.79555
1055.65485	0.79306
1053.60105	0.79032
1051.54724	0.78754
1049.49344	0.78478
1047.43964	0.78229
1045.38583	0.77968
1043.33203	0.77651
1041.27823	0.77336
1039.22442	0.77059
1037.17062	0.76808
1035.11682	0.76589
1033.06301	0.76408
1031.00921	0.76278
1028.95541	0.76217
1026.90160	0.76201
1024.84780	0.76200
1022.79400	0.76212
1020.74019	0.76235
1018.68639	0.76238
1016.63259	0.76204
1014.57879	0.76151
1012.52498	0.76094
1010.47118	0.76038
1008.41738	0.76005
1006.36357	0.76051
1004.30977	0.76204
1002.25597	0.76425
1000.20216	0.76661
998.14836	0.76895
996.09456	0.77129
994.04075	0.77369
991.98695	0.77645
989.93315	0.77952
987.87934	0.78269
985.82554	0.78620
983.77174	0.78996
981.71793	0.79374
979.66413	0.79771
977.61033	0.80186
975.55652	0.80607
973.50272	0.81024
971.44892	0.81422
969.39511	0.81802
967.34131	0.82174
965.28751	0.82533
963.23371	0.82858
961.17990	0.83157
959.12610	0.83448
957.07230	0.83733
955.01849	0.84010
952.96469	0.84291
950.91089	0.84579
948.85708	0.84850
946.80328	0.85112
944.74948	0.85351
942.69567	0.85565
940.64187	0.85786
938.58807	0.85998
936.53426	0.86199
934.48046	0.86419
932.42666	0.86627
930.37285	0.86775
928.31905	0.86885
926.26525	0.87014
924.21144	0.87159
922.15764	0.87277
920.10384	0.87334
918.05003	0.87328
915.99623	0.87319
913.94243	0.87385
911.88862	0.87500
909.83482	0.87597
907.78102	0.87709
905.72722	0.87877
903.67341	0.88084
901.61961	0.88286
899.56581	0.88417
897.51200	0.88513
895.45820	0.88627
893.40440	0.88743
891.35059	0.88853
889.29679	0.88922
887.24299	0.88918
885.18918	0.88901
883.13538	0.88933
881.08158	0.88978
879.02777	0.89039
876.97397	0.89160
874.92017	0.89297
872.86636	0.89355
870.81256	0.89326
868.75876	0.89334
866.70495	0.89409
864.65115	0.89499
862.59735	0.89572
860.54354	0.89560
858.48974	0.89515
856.43594	0.89534
854.38213	0.89590
852.32833	0.89621
850.27453	0.89616
848.22073	0.89618
846.16692	0.89652
844.11312	0.89703
842.05932	0.89727
840.00551	0.89712
837.95171	0.89680
835.89791	0.89621
833.84410	0.89538
831.79030	0.89446
829.73650	0.89365
827.68269	0.89320
825.62889	0.89297
823.57509	0.89259
821.52128	0.89215
819.46748	0.89169
817.41368	0.89104
815.35987	0.89029
813.30607	0.88898
811.25227	0.88734
809.19846	0.88668
807.14466	0.88607
805.09086	0.88388
803.03705	0.88079
800.98325	0.87800
798.92945	0.87650
796.87565	0.87666
794.82184	0.87723
792.76804	0.87707
790.71424	0.87663
788.66043	0.87629
786.60663	0.87542
784.55283	0.87371
782.49902	0.87183
780.44522	0.87073
778.39142	0.87080
776.33761	0.87161
774.28381	0.87237
772.23001	0.87267
770.17620	0.87228
768.12240	0.87142
766.06860	0.87052
764.01479	0.86935
761.96099	0.86826
759.90719	0.86802
757.85338	0.86826
755.79958	0.86809
753.74578	0.86744
751.69197	0.86697
749.63817	0.86689
747.58437	0.86676
745.53056	0.86642
743.47676	0.86615
741.42296	0.86598
739.36916	0.86587
737.31535	0.86554
735.26155	0.86460
733.20775	0.86332
731.15394	0.86174
729.10014	0.85980
727.04634	0.85748
724.99253	0.85478
722.93873	0.85276
720.88493	0.85224
718.83112	0.85287
716.77732	0.85415
714.72352	0.85561
712.66971	0.85686
710.61591	0.85751
708.56211	0.85742
706.50830	0.85719
704.45450	0.85674
702.40070	0.85564
700.34689	0.85456
698.29309	0.85396
696.23929	0.85337
694.18548	0.85263
692.13168	0.85218
690.07788	0.85202
688.02408	0.85194
685.97027	0.85201
683.91647	0.85212
681.86267	0.85204
679.80886	0.85165
677.75506	0.85116
675.70126	0.85031
673.64745	0.84829
671.59365	0.84606
669.53985	0.84467
667.48604	0.84373
665.43224	0.84369
663.37844	0.84435
661.32463	0.84473
659.27083	0.84409
657.21703	0.84187
655.16322	0.83913
653.10942	0.83739
651.05562	0.83604
649.00181	0.83469
646.94801	0.83426
644.89421	0.83464
642.84040	0.83411
640.78660	0.83265
638.73280	0.83229
636.67899	0.83284
634.62519	0.83275
632.57139	0.83283
630.51759	0.83365
628.46378	0.83365
626.40998	0.83270
624.35618	0.83137
622.30237	0.82984
620.24857	0.82856
618.19477	0.82688
616.14096	0.82482
614.08716	0.82357
612.03336	0.82265
609.97955	0.82103
607.92575	0.81919
605.87195	0.81724
603.81814	0.81478
601.76434	0.81282
599.71054	0.81218
597.65673	0.81114
595.60293	0.80793
593.54913	0.80432
591.49532	0.80234
589.44152	0.80179
587.38772	0.80235
585.33391	0.80300
583.28011	0.80198
581.22631	0.80007
579.17250	0.79939
577.11870	0.79996
575.06490	0.80117
573.01110	0.80321
570.95729	0.80502
568.90349	0.80496
566.84969	0.80412
564.79588	0.80387
562.74208	0.80333
560.68828	0.80240
558.63447	0.80137
556.58067	0.79994
554.52687	0.79861
552.47306	0.79775
550.41926	0.79650
548.36546	0.79404
546.31165	0.79127
544.25785	0.78906
542.20405	0.78678
540.15024	0.78383
538.09644	0.78037
536.04264	0.77771
533.98883	0.77729
531.93503	0.77747
529.88123	0.77545
527.82742	0.77387
525.77362	0.77612
523.71982	0.77858
521.66602	0.77829
519.61221	0.77747
517.55841	0.77785
515.50461	0.77847
513.45080	0.77955
511.39700	0.78171
509.34320	0.78282
507.28939	0.78220
505.23559	0.78159
503.18179	0.78185
501.12798	0.78347
499.07418	0.78541
497.02038	0.78553
494.96657	0.78357
492.91277	0.78092
490.85897	0.77910
488.80516	0.77903
486.75136	0.77873
484.69756	0.77460
482.64375	0.76724
480.58995	0.76073
478.53615	0.75643
476.48234	0.75369
474.42854	0.75064
472.37474	0.74642
470.32093	0.74444
468.26713	0.74471
466.21333	0.74442
464.15953	0.74414
462.10572	0.74394
460.05192	0.74352
457.99812	0.74434
455.94431	0.74797
453.89051	0.75186
451.83671	0.75236
449.78290	0.75244
447.72910	0.75370
445.67530	0.75332
443.62149	0.75329
441.56769	0.75436
439.51389	0.75426
437.46008	0.75165
435.40628	0.74690
433.35248	0.74256
431.29867	0.73891
429.24487	0.73702
427.19107	0.73941
425.13726	0.74369
423.08346	0.74544
421.02966	0.74581
418.97585	0.74724
416.92205	0.75181
414.86825	0.75902
412.81445	0.76359
410.76064	0.76413
408.70684	0.76497
406.65304	0.76493
404.59923	0.76094
402.54543	0.75414
400.49163	0.74545
398.43782	0.73373
