3996.71440	0.98291
3994.66059	0.98288
3992.60678	0.98271
3990.55297	0.98257
3988.49916	0.98246
3986.44535	0.98239
3984.39154	0.98246
3982.33773	0.98252
3980.28391	0.98258
3978.23010	0.98273
3976.17629	0.98289
3974.12248	0.98297
3972.06867	0.98288
3970.01486	0.98287
3967.96105	0.98292
3965.90724	0.98270
3963.85343	0.98235
3961.79962	0.98222
3959.74581	0.98243
3957.69200	0.98257
3955.63819	0.98255
3953.58438	0.98269
3951.53057	0.98280
3949.47676	0.98280
3947.42295	0.98268
3945.36914	0.98238
3943.31533	0.98256
3941.26152	0.98316
3939.20771	0.98322
3937.15390	0.98281
3935.10009	0.98270
3933.04628	0.98304
3930.99247	0.98315
3928.93866	0.98290
3926.88485	0.98285
3924.83104	0.98295
3922.77723	0.98291
3920.72342	0.98293
3918.66961	0.98312
3916.61580	0.98333
3914.56199	0.98328
3912.50818	0.98312
3910.45437	0.98291
3908.40056	0.98264
3906.34675	0.98267
3904.29294	0.98289
3902.23913	0.98280
3900.18532	0.98261
3898.13151	0.98252
3896.07770	0.98235
3894.02389	0.98202
3891.97008	0.98175
3889.91627	0.98182
3887.86246	0.98225
3885.80865	0.98279
3883.75484	0.98310
3881.70103	0.98326
3879.64722	0.98310
3877.59341	0.98255
3875.53960	0.98229
3873.48579	0.98234
3871.43198	0.98228
3869.37817	0.98238
3867.32436	0.98268
3865.27055	0.98283
3863.21674	0.98278
3861.16293	0.98272
3859.10912	0.98294
3857.05531	0.98332
3855.00150	0.98335
3852.94769	0.98250
3850.89388	0.98162
3848.84007	0.98123
3846.78626	0.98091
3844.73245	0.98087
3842.67864	0.98129
3840.62483	0.98198
3838.57102	0.98267
3836.51721	0.98286
3834.46340	0.98257
3832.40959	0.98228
3830.35578	0.98207
3828.30197	0.98176
3826.24816	0.98153
3824.19435	0.98174
3822.14054	0.98244
3820.08673	0.98278
3818.03292	0.98240
3815.97911	0.98206
3813.92530	0.98188
3811.87149	0.98165
3809.81768	0.98125
3807.76387	0.98102
3805.71006	0.98129
3803.65625	0.98163
3801.60244	0.98177
3799.54863	0.98161
3797.49482	0.98146
3795.44101	0.98128
3793.38720	0.98092
3791.33339	0.98062
3789.27958	0.98063
3787.22577	0.98112
3785.17196	0.98141
3783.11815	0.98081
3781.06434	0.98021
3779.01053	0.98024
3776.95672	0.98025
3774.90291	0.97991
3772.84910	0.97960
3770.79529	0.97972
3768.74148	0.97990
3766.68767	0.97986
3764.63386	0.97995
3762.58005	0.97988
3760.52624	0.97978
3758.47243	0.98008
3756.41862	0.98014
3754.36481	0.97959
3752.31100	0.97928
3750.25719	0.97990
3748.20338	0.98031
3746.14957	0.98005
3744.09576	0.97959
3742.04195	0.97914
3739.98814	0.97870
3737.93433	0.97848
3735.88052	0.97866
3733.82671	0.97886
3731.77290	0.97883
3729.71909	0.97883
3727.66528	0.97877
3725.61147	0.97837
3723.55766	0.97772
3721.50385	0.97725
3719.45004	0.97678
3717.39623	0.97607
3715.34242	0.97547
3713.28861	0.97520
3711.23480	0.97468
3709.18099	0.97330
3707.12718	0.97192
3705.07337	0.97089
3703.01956	0.97033
3700.96575	0.97008
3698.91194	0.96918
3696.85813	0.96778
3694.80432	0.96682
3692.75051	0.96663
3690.69670	0.96648
3688.64289	0.96535
3686.58907	0.96377
3684.53526	0.96251
3682.48145	0.96128
3680.42764	0.96007
3678.37383	0.95903
3676.32002	0.95762
3674.26621	0.95547
3672.21240	0.95366
3670.15859	0.95206
3668.10478	0.94978
3666.05097	0.94733
3663.99716	0.94514
3661.94335	0.94313
3659.88954	0.94090
3657.83573	0.93849
3655.78192	0.93628
3653.72811	0.93434
3651.67430	0.93277
3649.62049	0.93125
3647.56668	0.92872
3645.51287	0.92570
3643.45906	0.92272
3641.40525	0.91972
3639.35144	0.91720
3637.29763	0.91523
3635.24382	0.91307
3633.19001	0.91064
3631.13620	0.90868
3629.08239	0.90681
3627.02858	0.90422
3624.97477	0.90181
3622.92096	0.89974
3620.86715	0.89770
3618.81334	0.89546
3616.75953	0.89309
3614.70572	0.89088
3612.65191	0.88884
3610.59810	0.88675
3608.54429	0.88447
3606.49048	0.88206
3604.43667	0.87971
3602.38286	0.87771
3600.32905	0.87602
3598.27524	0.87392
3596.22143	0.87155
3594.16762	0.86974
3592.11381	0.86819
3590.06000	0.86643
3588.00619	0.86485
3585.95238	0.86329
3583.89857	0.86128
3581.84476	0.85918
3579.79095	0.85705
3577.73714	0.85469
3575.68333	0.85252
3573.62952	0.85092
3571.57571	0.84940
3569.52190	0.84781
3567.46809	0.84637
3565.41428	0.84451
3563.36047	0.84205
3561.30666	0.83961
3559.25285	0.83772
3557.19904	0.83617
3555.14523	0.83453
3553.09142	0.83261
3551.03761	0.83069
3548.98380	0.82932
3546.92999	0.82816
3544.87618	0.82648
3542.82237	0.82430
3540.76856	0.82218
3538.71475	0.82048
3536.66094	0.81904
3534.60713	0.81761
3532.55332	0.81622
3530.49951	0.81488
3528.44570	0.81362
3526.39189	0.81210
3524.33808	0.81005
3522.28427	0.80801
3520.23046	0.80643
3518.17665	0.80513
3516.12284	0.80372
3514.06903	0.80235
3512.01522	0.80112
3509.96141	0.79966
3507.90760	0.79799
3505.85379	0.79636
3503.79998	0.79498
3501.74617	0.79392
3499.69236	0.79262
3497.63855	0.79090
3495.58474	0.78921
3493.53093	0.78785
3491.47712	0.78662
3489.42331	0.78524
3487.36950	0.78375
3485.31569	0.78236
3483.26188	0.78102
3481.20807	0.77963
3479.15426	0.77826
3477.10045	0.77689
3475.04664	0.77557
3472.99283	0.77439
3470.93902	0.77322
3468.88521	0.77196
3466.83140	0.77059
3464.77759	0.76926
3462.72378	0.76820
3460.66997	0.76729
3458.61616	0.76616
3456.56235	0.76488
3454.50854	0.76380
3452.45473	0.76285
3450.40092	0.76164
3448.34711	0.76041
3446.29330	0.75956
3444.23949	0.75882
3442.18568	0.75794
3440.13187	0.75706
3438.07806	0.75633
3436.02425	0.75552
3433.97044	0.75436
3431.91663	0.75307
3429.86282	0.75190
3427.80901	0.75083
3425.75520	0.74996
3423.70139	0.74923
3421.64758	0.74859
3419.59377	0.74803
3417.53996	0.74730
3415.48615	0.74636
3413.43234	0.74566
3411.37853	0.74535
3409.32472	0.74499
3407.27091	0.74450
3405.21710	0.74393
3403.16329	0.74319
3401.10948	0.74251
3399.05567	0.74212
3397.00186	0.74188
3394.94805	0.74162
3392.89424	0.74140
3390.84042	0.74131
3388.78661	0.74119
3386.73280	0.74110
3384.67899	0.74129
3382.62518	0.74154
3380.57137	0.74151
3378.51756	0.74134
3376.46375	0.74108
3374.40994	0.74081
3372.35613	0.74092
3370.30232	0.74144
3368.24851	0.74189
3366.19470	0.74208
3364.14089	0.74221
3362.08708	0.74253
3360.03327	0.74296
3357.97946	0.74311
3355.92565	0.74293
3353.87184	0.74284
3351.81803	0.74309
3349.76422	0.74359
3347.71041	0.74401
3345.65660	0.74423
3343.60279	0.74451
3341.54898	0.74487
3339.49517	0.74512
3337.44136	0.74540
3335.38755	0.74603
3333.33374	0.74684
3331.27993	0.74747
3329.22612	0.74790
3327.17231	0.74840
3325.11850	0.74899
3323.06469	0.74965
3321.01088	0.75037
3318.95707	0.75100
3316.90326	0.75133
3314.84945	0.75127
3312.79564	0.75120
3310.74183	0.75145
3308.68802	0.75183
3306.63421	0.75230
3304.58040	0.75292
3302.52659	0.75352
3300.47278	0.75400
3298.41897	0.75442
3296.36516	0.75482
3294.31135	0.75511
3292.25754	0.75540
3290.20373	0.75579
3288.14992	0.75618
3286.09611	0.75652
3284.04230	0.75682
3281.98849	0.75730
3279.93468	0.75797
3277.88087	0.75841
3275.82706	0.75859
3273.77325	0.75893
3271.71944	0.75960
3269.66563	0.76045
3267.61182	0.76122
3265.55801	0.76171
3263.50420	0.76205
3261.45039	0.76249
3259.39658	0.76315
3257.34277	0.76376
3255.28896	0.76419
3253.23515	0.76462
3251.18134	0.76517
3249.12753	0.76573
3247.07372	0.76641
3245.01991	0.76718
3242.96610	0.76778
3240.91229	0.76822
3238.85848	0.76874
3236.80467	0.76948
3234.75086	0.77031
3232.69705	0.77094
3230.64324	0.77155
3228.58943	0.77243
3226.53562	0.77343
3224.48181	0.77445
3222.42800	0.77537
3220.37419	0.77611
3218.32038	0.77669
3216.26657	0.77733
3214.21276	0.77846
3212.15895	0.77975
3210.10514	0.78071
3208.05133	0.78166
3205.99752	0.78261
3203.94371	0.78333
3201.88990	0.78403
3199.83609	0.78510
3197.78228	0.78652
3195.72847	0.78795
3193.67466	0.78910
3191.62085	0.79006
3189.56704	0.79100
3187.51323	0.79208
3185.45942	0.79324
3183.40561	0.79428
3181.35180	0.79530
3179.29799	0.79646
3177.24418	0.79784
3175.19037	0.79917
3173.13656	0.80017
3171.08275	0.80105
3169.02894	0.80212
3166.97513	0.80332
3164.92132	0.80443
3162.86751	0.80548
3160.81370	0.80657
3158.75989	0.80776
3156.70608	0.80891
3154.65227	0.80990
3152.59846	0.81109
3150.54465	0.81259
3148.49084	0.81394
3146.43703	0.81503
3144.38322	0.81612
3142.32941	0.81716
3140.27560	0.81811
3138.22179	0.81922
3136.16798	0.82059
3134.11417	0.82202
3132.06036	0.82320
3130.00655	0.82414
3127.95274	0.82506
3125.89893	0.82594
3123.84512	0.82679
3121.79131	0.82794
3119.73750	0.82924
3117.68369	0.83037
3115.62988	0.83132
3113.57607	0.83227
3111.52226	0.83333
3109.46845	0.83442
3107.41464	0.83542
3105.36083	0.83639
3103.30702	0.83742
3101.25321	0.83821
3099.19940	0.83879
3097.14559	0.83958
3095.09177	0.84061
3093.03796	0.84167
3090.98415	0.84260
3088.93034	0.84335
3086.87653	0.84400
3084.82272	0.84481
3082.76891	0.84581
3080.71510	0.84683
3078.66129	0.84780
3076.60748	0.84849
3074.55367	0.84907
3072.49986	0.85004
3070.44605	0.85117
3068.39224	0.85209
3066.33843	0.85279
3064.28462	0.85339
3062.23081	0.85422
3060.17700	0.85528
3058.12319	0.85601
3056.06938	0.85650
3054.01557	0.85715
3051.96176	0.85780
3049.90795	0.85848
3047.85414	0.85939
3045.80033	0.86028
3043.74652	0.86093
3041.69271	0.86147
3039.63890	0.86210
3037.58509	0.86290
3035.53128	0.86384
3033.47747	0.86464
3031.42366	0.86517
3029.36985	0.86575
3027.31604	0.86644
3025.26223	0.86699
3023.20842	0.86744
3021.15461	0.86795
3019.10080	0.86843
3017.04699	0.86883
3014.99318	0.86937
3012.93937	0.87007
3010.88556	0.87060
3008.83175	0.87097
3006.77794	0.87143
3004.72413	0.87193
3002.67032	0.87237
3000.61651	0.87273
2998.56270	0.87315
2996.50889	0.87378
2994.45508	0.87437
2992.40127	0.87472
2990.34746	0.87504
2988.29365	0.87533
2986.23984	0.87539
2984.18603	0.87529
2982.13222	0.87509
2980.07841	0.87483
2978.02460	0.87464
2975.97079	0.87440
2973.91698	0.87387
2971.86317	0.87283
2969.80936	0.87135
2967.75555	0.86979
2965.70174	0.86818
2963.64793	0.86660
2961.59412	0.86523
2959.54031	0.86398
2957.48650	0.86268
2955.43269	0.86142
2953.37888	0.86033
2951.32507	0.85941
2949.27126	0.85830
2947.21745	0.85614
2945.16364	0.85238
2943.10983	0.84715
2941.05602	0.84033
2939.00221	0.83147
2936.94840	0.82059
2934.89459	0.80768
2932.84078	0.79238
2930.78697	0.77448
2928.73316	0.75353
2926.67935	0.72848
2924.62554	0.69823
2922.57173	0.66263
2920.51792	0.62373
2918.46411	0.58643
2916.41030	0.55938
2914.35649	0.55237
2912.30268	0.56775
2910.24887	0.59699
2908.19506	0.62842
2906.14125	0.65528
2904.08744	0.67624
2902.03363	0.69242
2899.97982	0.70541
2897.92601	0.71652
2895.87220	0.72639
2893.81839	0.73556
2891.76458	0.74472
2889.71077	0.75399
2887.65696	0.76336
2885.60315	0.77309
2883.54934	0.78310
2881.49553	0.79311
2879.44172	0.80299
2877.38791	0.81240
2875.33410	0.82071
2873.28029	0.82752
2871.22648	0.83269
2869.17267	0.83596
2867.11886	0.83701
2865.06505	0.83545
2863.01124	0.83047
2860.95743	0.82089
2858.90362	0.80508
2856.84981	0.78027
2854.79600	0.74276
2852.74219	0.69150
2850.68838	0.63580
2848.63457	0.59730
2846.58076	0.59442
2844.52695	0.62410
2842.47314	0.66774
2840.41933	0.70980
2838.36552	0.74422
2836.31171	0.77071
2834.25790	0.79072
2832.20409	0.80590
2830.15028	0.81769
2828.09647	0.82723
2826.04266	0.83510
2823.98885	0.84161
2821.93504	0.84714
2819.88123	0.85195
2817.82742	0.85594
2815.77361	0.85930
2813.71980	0.86237
2811.66599	0.86510
2809.61218	0.86752
2807.55837	0.86972
2805.50456	0.87162
2803.45075	0.87338
2801.39693	0.87520
2799.34312	0.87690
2797.28931	0.87842
2795.23550	0.88008
2793.18169	0.88173
2791.12788	0.88302
2789.07407	0.88411
2787.02026	0.88537
2784.96645	0.88682
2782.91264	0.88821
2780.85883	0.88943
2778.80502	0.89044
2776.75121	0.89129
2774.69740	0.89210
2772.64359	0.89290
2770.58978	0.89377
2768.53597	0.89468
2766.48216	0.89542
2764.42835	0.89606
2762.37454	0.89677
2760.32073	0.89749
2758.26692	0.89810
2756.21311	0.89857
2754.15930	0.89890
2752.10549	0.89923
2750.05168	0.89973
2747.99787	0.90014
2745.94406	0.90042
2743.89025	0.90087
2741.83644	0.90146
2739.78263	0.90192
2737.72882	0.90214
2735.67501	0.90224
2733.62120	0.90263
2731.56739	0.90326
2729.51358	0.90362
2727.45977	0.90377
2725.40596	0.90408
2723.35215	0.90455
2721.29834	0.90499
2719.24453	0.90532
2717.19072	0.90562
2715.13691	0.90596
2713.08310	0.90620
2711.02929	0.90632
2708.97548	0.90648
2706.92167	0.90675
2704.86786	0.90704
2702.81405	0.90742
2700.76024	0.90799
2698.70643	0.90849
2696.65262	0.90857
2694.59881	0.90856
2692.54500	0.90887
2690.49119	0.90926
2688.43738	0.90964
2686.38357	0.91003
2684.32976	0.91015
2682.27595	0.90999
2680.22214	0.90973
2678.16833	0.90958
2676.11452	0.90969
2674.06071	0.90981
2672.00690	0.90971
2669.95309	0.90956
2667.89928	0.90946
2665.84547	0.90944
2663.79166	0.90951
2661.73785	0.90955
2659.68404	0.90970
2657.63023	0.90985
2655.57642	0.90983
2653.52261	0.90988
2651.46880	0.91014
2649.41499	0.91035
2647.36118	0.91034
2645.30737	0.91027
2643.25356	0.91033
2641.19975	0.91042
2639.14594	0.91041
2637.09213	0.91048
2635.03832	0.91078
2632.98451	0.91112
2630.93070	0.91147
2628.87689	0.91192
2626.82308	0.91227
2624.76927	0.91253
2622.71546	0.91291
2620.66165	0.91320
2618.60784	0.91340
2616.55403	0.91372
2614.50022	0.91393
2612.44641	0.91397
2610.39260	0.91407
2608.33879	0.91426
2606.28498	0.91465
2604.23117	0.91511
2602.17736	0.91530
2600.12355	0.91524
2598.06974	0.91517
2596.01593	0.91523
2593.96212	0.91534
2591.90831	0.91524
2589.85450	0.91522
2587.80069	0.91558
2585.74688	0.91604
2583.69307	0.91644
2581.63926	0.91674
2579.58545	0.91687
2577.53164	0.91696
2575.47783	0.91695
2573.42402	0.91706
2571.37021	0.91732
2569.31640	0.91741
2567.26259	0.91749
2565.20878	0.91769
2563.15497	0.91779
2561.10116	0.91776
2559.04735	0.91761
2556.99354	0.91747
2554.93973	0.91761
2552.88592	0.91799
2550.83211	0.91818
2548.77830	0.91801
2546.72449	0.91764
2544.67068	0.91751
2542.61687	0.91775
2540.56306	0.91793
2538.50925	0.91813
2536.45544	0.91849
2534.40163	0.91871
2532.34782	0.91874
2530.29401	0.91856
2528.24020	0.91808
2526.18639	0.91765
2524.13258	0.91777
2522.07877	0.91822
2520.02496	0.91844
2517.97115	0.91832
2515.91734	0.91830
2513.86353	0.91818
2511.80972	0.91789
2509.75591	0.91819
2507.70210	0.91885
2505.64828	0.91908
2503.59447	0.91885
2501.54066	0.91855
2499.48685	0.91850
2497.43304	0.91867
2495.37923	0.91871
2493.32542	0.91861
2491.27161	0.91860
2489.21780	0.91880
2487.16399	0.91912
2485.11018	0.91923
2483.05637	0.91922
2481.00256	0.91939
2478.94875	0.91959
2476.89494	0.91952
2474.84113	0.91905
2472.78732	0.91850
2470.73351	0.91843
2468.67970	0.91911
2466.62589	0.91998
2464.57208	0.92035
2462.51827	0.92018
2460.46446	0.91964
2458.41065	0.91930
2456.35684	0.91961
2454.30303	0.92005
2452.24922	0.92017
2450.19541	0.92003
2448.14160	0.91989
2446.08779	0.92017
2444.03398	0.92068
2441.98017	0.92086
2439.92636	0.92056
2437.87255	0.92010
2435.81874	0.91998
2433.76493	0.92040
2431.71112	0.92100
2429.65731	0.92121
2427.60350	0.92113
2425.54969	0.92116
2423.49588	0.92120
2421.44207	0.92096
2419.38826	0.92070
2417.33445	0.92091
2415.28064	0.92138
2413.22683	0.92152
2411.17302	0.92144
2409.11921	0.92127
2407.06540	0.92105
2405.01159	0.92101
2402.95778	0.92116
2400.90397	0.92121
2398.85016	0.92111
2396.79635	0.92123
2394.74254	0.92167
2392.68873	0.92207
2390.63492	0.92213
2388.58111	0.92197
2386.52730	0.92169
2384.47349	0.92131
2382.41968	0.92118
2380.36587	0.92132
2378.31206	0.92162
2376.25825	0.92208
2374.20444	0.92220
2372.15063	0.92196
2370.09682	0.92182
2368.04301	0.92153
2365.98920	0.92144
2363.93539	0.92217
2361.88158	0.92280
2359.82777	0.92260
2357.77396	0.92232
2355.72015	0.92213
2353.66634	0.92165
2351.61253	0.92124
2349.55872	0.92083
2347.50491	0.92030
2345.45110	0.91999
2343.39729	0.91999
2341.34348	0.92005
2339.28967	0.92010
2337.23586	0.92045
2335.18205	0.92087
2333.12824	0.92083
2331.07443	0.92069
2329.02062	0.92069
2326.96681	0.92009
2324.91300	0.91913
2322.85919	0.91890
2320.80538	0.91947
2318.75157	0.92021
2316.69776	0.92062
2314.64395	0.92058
2312.59014	0.92069
2310.53633	0.92111
2308.48252	0.92122
2306.42871	0.92104
2304.37490	0.92131
2302.32109	0.92188
2300.26728	0.92207
2298.21347	0.92185
2296.15966	0.92136
2294.10585	0.92066
2292.05204	0.92032
2289.99823	0.92060
2287.94442	0.92080
2285.89061	0.92070
2283.83680	0.92095
2281.78299	0.92156
2279.72918	0.92189
2277.67537	0.92172
2275.62156	0.92137
2273.56775	0.92142
2271.51394	0.92181
2269.46013	0.92204
2267.40632	0.92211
2265.35251	0.92200
2263.29870	0.92189
2261.24489	0.92173
2259.19108	0.92130
2257.13727	0.92112
2255.08346	0.92128
2253.02965	0.92145
2250.97584	0.92172
2248.92203	0.92210
2246.86822	0.92249
2244.81441	0.92300
2242.76060	0.92319
2240.70679	0.92279
2238.65298	0.92283
2236.59917	0.92297
2234.54536	0.92218
2232.49155	0.92118
2230.43774	0.92072
2228.38393	0.92075
2226.33012	0.92090
2224.27631	0.92077
2222.22250	0.92120
2220.16869	0.92255
2218.11488	0.92329
2216.06107	0.92325
2214.00726	0.92355
2211.95344	0.92374
2209.89963	0.92261
2207.84582	0.92063
2205.79201	0.92009
2203.73820	0.92121
2201.68439	0.92150
2199.63058	0.92060
2197.57677	0.92052
2195.52296	0.92179
2193.46915	0.92283
2191.41534	0.92308
2189.36153	0.92362
2187.30772	0.92412
2185.25391	0.92313
2183.20010	0.92092
2181.14629	0.91977
2179.09248	0.92019
2177.03867	0.92054
2174.98486	0.92060
2172.93105	0.92108
2170.87724	0.92188
2168.82343	0.92198
2166.76962	0.92136
2164.71581	0.92194
2162.66200	0.92357
2160.60819	0.92488
2158.55438	0.92646
2156.50057	0.92756
2154.44676	0.92668
2152.39295	0.92479
2150.33914	0.92390
2148.28533	0.92359
2146.23152	0.92289
2144.17771	0.92273
2142.12390	0.92258
2140.07009	0.92166
2138.01628	0.92107
2135.96247	0.92136
2133.90866	0.92176
2131.85485	0.92167
2129.80104	0.92147
2127.74723	0.92166
2125.69342	0.92133
2123.63961	0.92049
2121.58580	0.92012
2119.53199	0.91965
2117.47818	0.91946
2115.42437	0.91985
2113.37056	0.91985
2111.31675	0.91973
2109.26294	0.91951
2107.20913	0.91891
2105.15532	0.91902
2103.10151	0.91988
2101.04770	0.92023
2098.99389	0.91993
2096.94008	0.91997
2094.88627	0.92042
2092.83246	0.92042
2090.77865	0.91986
2088.72484	0.91937
2086.67103	0.91882
2084.61722	0.91807
2082.56341	0.91790
2080.50960	0.91809
2078.45579	0.91815
2076.40198	0.91833
2074.34817	0.91836
2072.29436	0.91871
2070.24055	0.91993
2068.18674	0.92108
2066.13293	0.92135
2064.07912	0.92101
2062.02531	0.92040
2059.97150	0.91964
2057.91769	0.91913
2055.86388	0.91919
2053.81007	0.91923
2051.75626	0.91892
2049.70245	0.91914
2047.64864	0.91992
2045.59483	0.92049
2043.54102	0.92066
2041.48721	0.92084
2039.43340	0.92080
2037.37959	0.92030
2035.32578	0.92030
2033.27197	0.92002
2031.21816	0.91974
2029.16435	0.92075
2027.11054	0.92009
2025.05673	0.91762
2023.00292	0.91669
2020.94911	0.91752
2018.89530	0.91908
2016.84149	0.92086
2014.78768	0.92277
2012.73387	0.92331
2010.68006	0.92176
2008.62625	0.92130
2006.57244	0.92203
2004.51863	0.92107
2002.46482	0.92020
2000.41101	0.92047
1998.35720	0.92022
1996.30339	0.91949
1994.24958	0.91950
1992.19577	0.92008
1990.14196	0.91968
1988.08815	0.91895
1986.03434	0.91902
1983.98053	0.91872
1981.92672	0.91760
1979.87291	0.91732
1977.81910	0.91918
1975.76529	0.92079
1973.71148	0.91960
1971.65767	0.91719
1969.60386	0.91590
1967.55005	0.91622
1965.49624	0.91716
1963.44243	0.91763
1961.38862	0.91774
1959.33481	0.91811
1957.28100	0.91860
1955.22719	0.91859
1953.17338	0.91788
1951.11957	0.91630
1949.06576	0.91477
1947.01195	0.91444
1944.95814	0.91459
1942.90433	0.91478
1940.85052	0.91514
1938.79671	0.91525
1936.74290	0.91511
1934.68909	0.91502
1932.63528	0.91477
1930.58147	0.91427
1928.52766	0.91404
1926.47385	0.91403
1924.42004	0.91375
1922.36623	0.91314
1920.31242	0.91266
1918.25861	0.91233
1916.20479	0.91176
1914.15098	0.91120
1912.09717	0.91082
1910.04336	0.91042
1907.98955	0.90974
1905.93574	0.90910
1903.88193	0.90903
1901.82812	0.90915
1899.77431	0.90912
1897.72050	0.90900
1895.66669	0.90871
1893.61288	0.90818
1891.55907	0.90781
1889.50526	0.90782
1887.45145	0.90754
1885.39764	0.90641
1883.34383	0.90501
1881.29002	0.90431
1879.23621	0.90405
1877.18240	0.90369
1875.12859	0.90348
1873.07478	0.90340
1871.02097	0.90349
1868.96716	0.90403
1866.91335	0.90425
1864.85954	0.90352
1862.80573	0.90244
1860.75192	0.90159
1858.69811	0.90115
1856.64430	0.90096
1854.59049	0.90070
1852.53668	0.89995
1850.48287	0.89888
1848.42906	0.89882
1846.37525	0.89965
1844.32144	0.89953
1842.26763	0.89821
1840.21382	0.89729
1838.16001	0.89718
1836.10620	0.89719
1834.05239	0.89695
1831.99858	0.89672
1829.94477	0.89647
1827.89096	0.89563
1825.83715	0.89452
1823.78334	0.89362
1821.72953	0.89300
1819.67572	0.89270
1817.62191	0.89240
1815.56810	0.89173
1813.51429	0.89105
1811.46048	0.89060
1809.40667	0.89012
1807.35286	0.88953
1805.29905	0.88890
1803.24524	0.88823
1801.19143	0.88744
1799.13762	0.88647
1797.08381	0.88537
1795.03000	0.88449
1792.97619	0.88404
1790.92238	0.88348
1788.86857	0.88234
1786.81476	0.88115
1784.76095	0.88031
1782.70714	0.87970
1780.65333	0.87905
1778.59952	0.87825
1776.54571	0.87747
1774.49190	0.87677
1772.43809	0.87571
1770.38428	0.87401
1768.33047	0.87237
1766.27666	0.87109
1764.22285	0.87008
1762.16904	0.86888
1760.11523	0.86696
1758.06142	0.86455
1756.00761	0.86185
1753.95380	0.85943
1751.89999	0.85720
1749.84618	0.85450
1747.79237	0.85140
1745.73856	0.84838
1743.68475	0.84568
1741.63094	0.84322
1739.57713	0.84107
1737.52332	0.83978
1735.46951	0.83954
1733.41570	0.83940
1731.36189	0.83818
1729.30808	0.83645
1727.25427	0.83466
1725.20046	0.83272
1723.14665	0.83045
1721.09284	0.82831
1719.03903	0.82650
1716.98522	0.82422
1714.93141	0.82140
1712.87760	0.81907
1710.82379	0.81782
1708.76998	0.81778
1706.71617	0.81858
1704.66236	0.81961
1702.60855	0.82048
1700.55474	0.82139
1698.50093	0.82155
1696.44712	0.82118
1694.39331	0.82109
1692.33950	0.82086
1690.28569	0.82047
1688.23188	0.81988
1686.17807	0.81920
1684.12426	0.81811
1682.07045	0.81614
1680.01664	0.81398
1677.96283	0.81198
1675.90902	0.81004
1673.85521	0.80784
1671.80140	0.80557
1669.74759	0.80317
1667.69378	0.80042
1665.63997	0.79780
1663.58616	0.79518
1661.53235	0.79227
1659.47854	0.78957
1657.42473	0.78731
1655.37092	0.78541
1653.31711	0.78310
1651.26330	0.78027
1649.20949	0.77831
1647.15568	0.77685
1645.10187	0.77564
1643.04806	0.77475
1640.99425	0.77422
1638.94044	0.77414
1636.88663	0.77471
1634.83282	0.77583
1632.77901	0.77662
1630.72520	0.77756
1628.67139	0.77952
1626.61758	0.78225
1624.56377	0.78543
1622.50996	0.78915
1620.45614	0.79243
1618.40233	0.79596
1616.34852	0.80123
1614.29471	0.80610
1612.24090	0.80991
1610.18709	0.81403
1608.13328	0.81850
1606.07947	0.82293
1604.02566	0.82704
1601.97185	0.83069
1599.91804	0.83398
1597.86423	0.83711
1595.81042	0.84019
1593.75661	0.84305
1591.70280	0.84565
1589.64899	0.84820
1587.59518	0.85049
1585.54137	0.85244
1583.48756	0.85444
1581.43375	0.85641
1579.37994	0.85805
1577.32613	0.85986
1575.27232	0.86167
1573.21851	0.86247
1571.16470	0.86328
1569.11089	0.86452
1567.05708	0.86514
1565.00327	0.86530
1562.94946	0.86558
1560.89565	0.86647
1558.84184	0.86838
1556.78803	0.86900
1554.73422	0.86859
1552.68041	0.86852
1550.62660	0.86892
1548.57279	0.86956
1546.51898	0.87033
1544.46517	0.87131
1542.41136	0.87232
1540.35755	0.87343
1538.30374	0.87376
1536.24993	0.87351
1534.19612	0.87373
1532.14231	0.87424
1530.08850	0.87455
1528.03469	0.87517
1525.98088	0.87626
1523.92707	0.87739
1521.87326	0.87829
1519.81945	0.87864
1517.76564	0.87890
1515.71183	0.87931
1513.65802	0.87953
1511.60421	0.88002
1509.55040	0.88109
1507.49659	0.88236
1505.44278	0.88225
1503.38897	0.88136
1501.33516	0.88119
1499.28135	0.88156
1497.22754	0.88181
1495.17373	0.88161
1493.11992	0.88153
1491.06611	0.88194
1489.01230	0.88214
1486.95849	0.88130
1484.90468	0.87997
1482.85087	0.87839
1480.79706	0.87563
1478.74325	0.86864
1476.68944	0.84804
1474.63563	0.80659
1472.58182	0.76954
1470.52801	0.77175
1468.47420	0.78841
1466.42039	0.79162
1464.36658	0.77425
1462.31277	0.76064
1460.25896	0.77228
1458.20515	0.80211
1456.15134	0.82842
1454.09753	0.83826
1452.04372	0.84278
1449.98991	0.84654
1447.93610	0.84950
1445.88229	0.85136
1443.82848	0.85237
1441.77467	0.85313
1439.72086	0.85391
1437.66705	0.85503
1435.61324	0.85619
1433.55943	0.85677
1431.50562	0.85741
1429.45181	0.85833
1427.39800	0.85910
1425.34419	0.85969
1423.29038	0.86020
1421.23657	0.86040
1419.18276	0.86034
1417.12895	0.85992
1415.07514	0.85931
1413.02133	0.85886
1410.96752	0.85860
1408.91371	0.85840
1406.85990	0.85842
1404.80609	0.85876
1402.75228	0.85913
1400.69847	0.85947
1398.64466	0.85968
1396.59085	0.85956
1394.53704	0.85918
1392.48323	0.85857
1390.42942	0.85784
1388.37561	0.85713
1386.32180	0.85610
1384.26799	0.85456
1382.21418	0.85284
1380.16037	0.85114
1378.10656	0.84981
1376.05275	0.84911
1373.99894	0.84885
1371.94513	0.84853
1369.89132	0.84814
1367.83751	0.84776
1365.78370	0.84755
1363.72989	0.84762
1361.67608	0.84754
1359.62227	0.84707
1357.56846	0.84657
1355.51465	0.84627
1353.46084	0.84596
1351.40703	0.84547
1349.35322	0.84509
1347.29941	0.84500
1345.24560	0.84481
1343.19179	0.84453
1341.13798	0.84448
1339.08417	0.84435
1337.03036	0.84392
1334.97655	0.84365
1332.92274	0.84357
1330.86893	0.84340
1328.81512	0.84307
1326.76130	0.84254
1324.70749	0.84196
1322.65368	0.84147
1320.59987	0.84102
1318.54606	0.84056
1316.49225	0.84010
1314.43844	0.83956
1312.38463	0.83891
1310.33082	0.83833
1308.27701	0.83795
1306.22320	0.83750
1304.16939	0.83702
1302.11558	0.83673
1300.06177	0.83636
1298.00796	0.83560
1295.95415	0.83462
1293.90034	0.83382
1291.84653	0.83325
1289.79272	0.83275
1287.73891	0.83217
1285.68510	0.83141
1283.63129	0.83045
1281.57748	0.82922
1279.52367	0.82790
1277.46986	0.82662
1275.41605	0.82524
1273.36224	0.82357
1271.30843	0.82161
1269.25462	0.81947
1267.20081	0.81730
1265.14700	0.81516
1263.09319	0.81297
1261.03938	0.81048
1258.98557	0.80760
1256.93176	0.80431
1254.87795	0.80069
1252.82414	0.79674
1250.77033	0.79221
1248.71652	0.78720
1246.66271	0.78195
1244.60890	0.77649
1242.55509	0.77090
1240.50128	0.76516
1238.44747	0.75918
1236.39366	0.75313
1234.33985	0.74727
1232.28604	0.74166
1230.23223	0.73603
1228.17842	0.73019
1226.12461	0.72445
1224.07080	0.71910
1222.01699	0.71398
1219.96318	0.70867
1217.90937	0.70327
1215.85556	0.69826
1213.80175	0.69372
1211.74794	0.68932
1209.69413	0.68489
1207.64032	0.68037
1205.58651	0.67593
1203.53270	0.67161
1201.47889	0.66730
1199.42508	0.66318
1197.37127	0.65949
1195.31746	0.65624
1193.26365	0.65307
1191.20984	0.64962
1189.15603	0.64603
1187.10222	0.64270
1185.04841	0.63970
1182.99460	0.63695
1180.94079	0.63446
1178.88698	0.63208
1176.83317	0.62986
1174.77936	0.62799
1172.72555	0.62646
1170.67174	0.62510
1168.61793	0.62374
1166.56412	0.62255
1164.51031	0.62192
1162.45650	0.62212
1160.40269	0.62320
1158.34888	0.62478
1156.29507	0.62624
1154.24126	0.62722
1152.18745	0.62772
1150.13364	0.62801
1148.07983	0.62836
1146.02602	0.62873
1143.97221	0.62884
1141.91840	0.62867
1139.86459	0.62830
1137.81078	0.62761
1135.75697	0.62640
1133.70316	0.62482
1131.64935	0.62316
1129.59554	0.62157
1127.54173	0.61998
1125.48792	0.61823
1123.43411	0.61625
1121.38030	0.61417
1119.32649	0.61192
1117.27268	0.60946
1115.21887	0.60703
1113.16506	0.60472
1111.11125	0.60242
1109.05744	0.60009
1107.00363	0.59779
1104.94982	0.59553
1102.89601	0.59319
1100.84220	0.59077
1098.78839	0.58845
1096.73458	0.58644
1094.68077	0.58480
1092.62696	0.58349
1090.57315	0.58247
1088.51934	0.58162
1086.46553	0.58121
1084.41172	0.58132
1082.35791	0.58169
1080.30410	0.58239
1078.25029	0.58357
1076.19648	0.58490
1074.14267	0.58593
1072.08886	0.58631
1070.03505	0.58553
1067.98124	0.58336
1065.92743	0.57985
1063.87362	0.57492
1061.81981	0.56870
1059.76600	0.56155
1057.71219	0.55391
1055.65838	0.54652
1053.60457	0.54021
1051.55076	0.53566
1049.49695	0.53336
1047.44314	0.53323
1045.38933	0.53470
1043.33552	0.53720
1041.28171	0.54039
1039.22790	0.54399
1037.17409	0.54791
1035.12028	0.55216
1033.06647	0.55682
1031.01265	0.56204
1028.95884	0.56758
1026.90503	0.57303
1024.85122	0.57817
1022.79741	0.58293
1020.74360	0.58732
1018.68979	0.59147
1016.63598	0.59573
1014.58217	0.60030
1012.52836	0.60514
1010.47455	0.61005
1008.42074	0.61486
1006.36693	0.61984
1004.31312	0.62520
1002.25931	0.63084
1000.20550	0.63637
998.15169	0.64160
996.09788	0.64675
994.04407	0.65180
991.99026	0.65643
989.93645	0.66067
987.88264	0.66475
985.82883	0.66859
983.77502	0.67230
981.72121	0.67603
979.66740	0.67968
977.61359	0.68321
975.55978	0.68667
973.50597	0.69015
971.45216	0.69388
969.39835	0.69762
967.34454	0.70081
965.29073	0.70357
963.23692	0.70637
961.18311	0.70938
959.12930	0.71246
957.07549	0.71510
955.02168	0.71716
952.96787	0.71908
950.91406	0.72088
948.86025	0.72243
946.80644	0.72392
944.75263	0.72549
942.69882	0.72715
940.64501	0.72868
938.59120	0.72982
936.53739	0.73047
934.48358	0.73082
932.42977	0.73103
930.37596	0.73106
928.32215	0.73100
926.26834	0.73098
924.21453	0.73075
922.16072	0.73002
920.10691	0.72897
918.05310	0.72746
915.99929	0.72556
913.94548	0.72355
911.89167	0.72171
909.83786	0.72033
907.78405	0.71930
905.73024	0.71846
903.67643	0.71746
901.62262	0.71619
899.56881	0.71498
897.51500	0.71375
895.46119	0.71227
893.40738	0.71098
891.35357	0.71004
889.29976	0.70906
887.24595	0.70821
885.19214	0.70809
883.13833	0.70845
881.08452	0.70885
879.03071	0.70967
876.97690	0.71093
874.92309	0.71234
872.86928	0.71393
870.81547	0.71568
868.76166	0.71752
866.70785	0.71951
864.65404	0.72141
862.60023	0.72305
860.54642	0.72479
858.49261	0.72689
856.43880	0.72924
854.38499	0.73146
852.33118	0.73321
850.27737	0.73442
848.22356	0.73537
846.16975	0.73660
844.11594	0.73804
842.06213	0.73867
840.00832	0.73845
837.95451	0.73830
835.90070	0.73836
833.84689	0.73815
831.79308	0.73759
829.73927	0.73669
827.68546	0.73561
825.63165	0.73478
823.57784	0.73412
821.52403	0.73333
819.47022	0.73248
817.41641	0.73152
815.36260	0.73025
813.30879	0.72836
811.25498	0.72570
809.20117	0.72228
807.14736	0.71748
805.09355	0.71087
803.03974	0.70346
800.98593	0.69687
798.93212	0.69225
796.87831	0.69069
794.82450	0.69233
792.77069	0.69539
790.71688	0.69783
788.66307	0.69881
786.60926	0.69843
784.55545	0.69665
782.50164	0.69361
780.44783	0.69066
778.39402	0.68948
776.34021	0.69027
774.28640	0.69211
772.23259	0.69395
770.17878	0.69513
768.12497	0.69602
766.07116	0.69668
764.01735	0.69665
761.96354	0.69622
759.90973	0.69569
757.85592	0.69502
755.80211	0.69427
753.74830	0.69340
751.69449	0.69278
749.64068	0.69251
747.58687	0.69201
745.53306	0.69128
743.47925	0.69062
741.42544	0.69003
739.37163	0.68927
737.31781	0.68723
735.26400	0.67901
733.21019	0.65538
731.15638	0.62191
729.10257	0.60648
727.04876	0.61705
724.99495	0.62836
722.94114	0.61784
720.88733	0.58230
718.83352	0.54845
716.77971	0.54839
714.72590	0.57466
712.67209	0.60154
710.61828	0.61841
708.56447	0.62805
706.51066	0.63418
704.45685	0.63776
702.40304	0.63959
700.34923	0.64034
698.29542	0.64023
696.24161	0.63980
694.18780	0.63971
692.13399	0.64004
690.08018	0.64037
688.02637	0.64024
685.97256	0.64002
683.91875	0.64021
681.86494	0.64010
679.81113	0.63894
677.75732	0.63744
675.70351	0.63663
673.64970	0.63628
671.59589	0.63600
669.54208	0.63567
667.48827	0.63482
665.43446	0.63396
663.38065	0.63344
661.32684	0.63271
659.27303	0.63102
657.21922	0.62886
655.16541	0.62721
653.11160	0.62594
651.05779	0.62500
649.00398	0.62392
646.95017	0.62178
644.89636	0.61909
642.84255	0.61658
640.78874	0.61430
638.73493	0.61223
636.68112	0.61015
634.62731	0.60841
632.57350	0.60676
630.51969	0.60464
628.46588	0.60256
626.41207	0.60070
624.35826	0.59889
622.30445	0.59669
620.25064	0.59362
618.19683	0.59020
616.14302	0.58701
614.08921	0.58359
612.03540	0.57989
609.98159	0.57632
607.92778	0.57252
605.87397	0.56788
603.82016	0.56232
601.76635	0.55598
599.71254	0.54908
597.65873	0.54252
595.60492	0.53697
593.55111	0.53225
591.49730	0.52842
589.44349	0.52569
587.38968	0.52322
585.33587	0.52111
583.28206	0.52135
581.22825	0.52393
579.17444	0.52656
577.12063	0.52856
575.06682	0.53099
573.01301	0.53456
570.95920	0.53906
568.90539	0.54337
566.85158	0.54699
564.79777	0.55050
562.74396	0.55338
560.69015	0.55547
558.63634	0.55741
556.58253	0.55845
554.52872	0.55854
552.47491	0.55941
550.42110	0.56082
548.36729	0.56081
546.31348	0.55899
544.25967	0.55686
542.20586	0.55565
540.15205	0.55519
538.09824	0.55526
536.04443	0.55610
533.99062	0.55728
531.93681	0.55809
529.88300	0.55847
527.82919	0.55938
525.77538	0.56054
523.72157	0.55968
521.66776	0.55751
519.61395	0.55601
517.56014	0.55453
515.50633	0.55262
513.45252	0.55164
511.39871	0.55208
509.34490	0.55307
507.29109	0.55440
505.23728	0.55609
503.18347	0.55739
501.12966	0.55837
499.07585	0.55910
497.02204	0.55945
494.96823	0.56038
492.91442	0.56103
490.86061	0.55900
488.80680	0.55436
486.75299	0.54836
484.69918	0.54200
482.64537	0.53575
480.59156	0.52940
478.53775	0.52302
476.48394	0.51695
474.43013	0.51152
472.37632	0.50626
470.32251	0.50136
468.26870	0.49736
466.21489	0.49407
464.16108	0.49313
462.10727	0.49506
460.05346	0.49746
457.99965	0.50045
455.94584	0.50343
453.89203	0.50386
451.83822	0.50514
449.78441	0.51072
447.73060	0.51670
445.67679	0.51909
443.62298	0.52056
441.56916	0.52360
439.51535	0.52759
437.46154	0.53064
435.40773	0.53001
433.35392	0.52681
431.30011	0.52446
429.24630	0.52487
427.19249	0.52673
425.13868	0.52815
423.08487	0.53082
421.03106	0.53492
418.97725	0.53885
416.92344	0.54224
414.86963	0.54603
412.81582	0.55091
410.76201	0.55432
408.70820	0.55473
406.65439	0.55572
404.60058	0.55761
402.54677	0.55746
400.49296	0.55500
398.43915	0.55007
