3996.70104	0.97446
3994.64724	0.97424
3992.59344	0.97390
3990.53964	0.97372
3988.48583	0.97335
3986.43203	0.97311
3984.37823	0.97357
3982.32442	0.97424
3980.27062	0.97451
3978.21682	0.97448
3976.16301	0.97419
3974.10921	0.97393
3972.05541	0.97399
3970.00160	0.97411
3967.94780	0.97424
3965.89400	0.97441
3963.84019	0.97453
3961.78639	0.97459
3959.73259	0.97473
3957.67878	0.97479
3955.62498	0.97458
3953.57118	0.97448
3951.51737	0.97465
3949.46357	0.97463
3947.40977	0.97434
3945.35596	0.97423
3943.30216	0.97435
3941.24836	0.97413
3939.19455	0.97392
3937.14075	0.97437
3935.08695	0.97506
3933.03315	0.97564
3930.97934	0.97572
3928.92554	0.97522
3926.87174	0.97496
3924.81793	0.97482
3922.76413	0.97435
3920.71033	0.97404
3918.65652	0.97406
3916.60272	0.97415
3914.54892	0.97430
3912.49511	0.97453
3910.44131	0.97477
3908.38751	0.97458
3906.33370	0.97384
3904.27990	0.97306
3902.22610	0.97316
3900.17229	0.97385
3898.11849	0.97397
3896.06469	0.97392
3894.01088	0.97411
3891.95708	0.97418
3889.90328	0.97387
3887.84947	0.97353
3885.79567	0.97386
3883.74187	0.97470
3881.68807	0.97508
3879.63426	0.97495
3877.58046	0.97466
3875.52666	0.97436
3873.47285	0.97404
3871.41905	0.97409
3869.36525	0.97461
3867.31144	0.97500
3865.25764	0.97510
3863.20384	0.97505
3861.15003	0.97493
3859.09623	0.97461
3857.04243	0.97427
3854.98862	0.97454
3852.93482	0.97572
3850.88102	0.97642
3848.82721	0.97644
3846.77341	0.97656
3844.71961	0.97672
3842.66580	0.97611
3840.61200	0.97497
3838.55820	0.97460
3836.50439	0.97527
3834.45059	0.97568
3832.39679	0.97571
3830.34298	0.97600
3828.28918	0.97594
3826.23538	0.97504
3824.18158	0.97424
3822.12777	0.97443
3820.07397	0.97550
3818.02017	0.97607
3815.96636	0.97579
3813.91256	0.97559
3811.85876	0.97594
3809.80495	0.97609
3807.75115	0.97565
3805.69735	0.97522
3803.64354	0.97563
3801.58974	0.97631
3799.53594	0.97597
3797.48213	0.97517
3795.42833	0.97507
3793.37453	0.97562
3791.32072	0.97614
3789.26692	0.97615
3787.21312	0.97570
3785.15931	0.97559
3783.10551	0.97589
3781.05171	0.97611
3778.99790	0.97597
3776.94410	0.97536
3774.89030	0.97488
3772.83650	0.97465
3770.78269	0.97473
3768.72889	0.97512
3766.67509	0.97510
3764.62128	0.97480
3762.56748	0.97528
3760.51368	0.97624
3758.45987	0.97637
3756.40607	0.97591
3754.35227	0.97617
3752.29846	0.97687
3750.24466	0.97638
3748.19086	0.97534
3746.13705	0.97526
3744.08325	0.97608
3742.02945	0.97707
3739.97564	0.97769
3737.92184	0.97780
3735.86804	0.97677
3733.81423	0.97502
3731.76043	0.97406
3729.70663	0.97384
3727.65282	0.97453
3725.59902	0.97599
3723.54522	0.97618
3721.49141	0.97475
3719.43761	0.97380
3717.38381	0.97369
3715.33001	0.97334
3713.27620	0.97254
3711.22240	0.97170
3709.16860	0.97091
3707.11479	0.96970
3705.06099	0.96810
3703.00719	0.96623
3700.95338	0.96433
3698.89958	0.96327
3696.84578	0.96310
3694.79197	0.96362
3692.73817	0.96429
3690.68437	0.96450
3688.63056	0.96515
3686.57676	0.96591
3684.52296	0.96613
3682.46915	0.96654
3680.41535	0.96760
3678.36155	0.96921
3676.30774	0.96978
3674.25394	0.96777
3672.20014	0.96591
3670.14633	0.96501
3668.09253	0.96448
3666.03873	0.96417
3663.98492	0.96394
3661.93112	0.96363
3659.87732	0.96334
3657.82352	0.96332
3655.76971	0.96334
3653.71591	0.96367
3651.66211	0.96479
3649.60830	0.96524
3647.55450	0.96289
3645.50070	0.96096
3643.44689	0.96034
3641.39309	0.96001
3639.33929	0.95967
3637.28548	0.95930
3635.23168	0.95935
3633.17788	0.95975
3631.12407	0.95950
3629.07027	0.95792
3627.01647	0.95614
3624.96266	0.95551
3622.90886	0.95528
3620.85506	0.95546
3618.80125	0.95662
3616.74745	0.95769
3614.69365	0.95798
3612.63984	0.95783
3610.58604	0.95721
3608.53224	0.95624
3606.47844	0.95558
3604.42463	0.95557
3602.37083	0.95541
3600.31703	0.95507
3598.26322	0.95527
3596.20942	0.95565
3594.15562	0.95545
3592.10181	0.95462
3590.04801	0.95413
3587.99421	0.95455
3585.94040	0.95450
3583.88660	0.95364
3581.83280	0.95332
3579.77899	0.95344
3577.72519	0.95340
3575.67139	0.95275
3573.61758	0.95173
3571.56378	0.95122
3569.50998	0.95115
3567.45617	0.95041
3565.40237	0.94915
3563.34857	0.94885
3561.29476	0.94864
3559.24096	0.94743
3557.18716	0.94605
3555.13335	0.94545
3553.07955	0.94533
3551.02575	0.94524
3548.97195	0.94490
3546.91814	0.94411
3544.86434	0.94304
3542.81054	0.94236
3540.75673	0.94221
3538.70293	0.94232
3536.64913	0.94239
3534.59532	0.94236
3532.54152	0.94251
3530.48772	0.94283
3528.43391	0.94286
3526.38011	0.94244
3524.32631	0.94232
3522.27250	0.94277
3520.21870	0.94308
3518.16490	0.94325
3516.11109	0.94336
3514.05729	0.94304
3512.00349	0.94255
3509.94968	0.94253
3507.89588	0.94268
3505.84208	0.94266
3503.78827	0.94287
3501.73447	0.94340
3499.68067	0.94365
3497.62687	0.94352
3495.57306	0.94316
3493.51926	0.94249
3491.46546	0.94201
3489.41165	0.94182
3487.35785	0.94141
3485.30405	0.94096
3483.25024	0.94103
3481.19644	0.94122
3479.14264	0.94113
3477.08883	0.94117
3475.03503	0.94120
3472.98123	0.94098
3470.92742	0.94094
3468.87362	0.94111
3466.81982	0.94116
3464.76601	0.94121
3462.71221	0.94128
3460.65841	0.94104
3458.60460	0.94056
3456.55080	0.94002
3454.49700	0.93954
3452.44319	0.93932
3450.38939	0.93911
3448.33559	0.93887
3446.28178	0.93885
3444.22798	0.93885
3442.17418	0.93872
3440.12038	0.93845
3438.06657	0.93800
3436.01277	0.93743
3433.95897	0.93681
3431.90516	0.93631
3429.85136	0.93601
3427.79756	0.93538
3425.74375	0.93454
3423.68995	0.93434
3421.63615	0.93449
3419.58234	0.93422
3417.52854	0.93359
3415.47474	0.93302
3413.42093	0.93265
3411.36713	0.93239
3409.31333	0.93228
3407.25952	0.93221
3405.20572	0.93196
3403.15192	0.93189
3401.09811	0.93221
3399.04431	0.93232
3396.99051	0.93222
3394.93670	0.93239
3392.88290	0.93264
3390.82910	0.93266
3388.77529	0.93257
3386.72149	0.93262
3384.66769	0.93272
3382.61389	0.93256
3380.56008	0.93232
3378.50628	0.93238
3376.45248	0.93256
3374.39867	0.93277
3372.34487	0.93335
3370.29107	0.93408
3368.23726	0.93475
3366.18346	0.93535
3364.12966	0.93544
3362.07585	0.93511
3360.02205	0.93493
3357.96825	0.93499
3355.91444	0.93532
3353.86064	0.93584
3351.80684	0.93604
3349.75303	0.93591
3347.69923	0.93576
3345.64543	0.93566
3343.59162	0.93576
3341.53782	0.93603
3339.48402	0.93633
3337.43021	0.93654
3335.37641	0.93635
3333.32261	0.93592
3331.26881	0.93606
3329.21500	0.93687
3327.16120	0.93760
3325.10740	0.93755
3323.05359	0.93707
3320.99979	0.93686
3318.94599	0.93720
3316.89218	0.93776
3314.83838	0.93802
3312.78458	0.93811
3310.73077	0.93815
3308.67697	0.93807
3306.62317	0.93807
3304.56936	0.93819
3302.51556	0.93847
3300.46176	0.93874
3298.40795	0.93876
3296.35415	0.93872
3294.30035	0.93877
3292.24654	0.93879
3290.19274	0.93879
3288.13894	0.93876
3286.08513	0.93887
3284.03133	0.93925
3281.97753	0.93945
3279.92372	0.93935
3277.86992	0.93945
3275.81612	0.93957
3273.76232	0.93939
3271.70851	0.93955
3269.65471	0.94025
3267.60091	0.94078
3265.54710	0.94079
3263.49330	0.94064
3261.43950	0.94093
3259.38569	0.94148
3257.33189	0.94173
3255.27809	0.94161
3253.22428	0.94167
3251.17048	0.94191
3249.11668	0.94179
3247.06287	0.94156
3245.00907	0.94168
3242.95527	0.94218
3240.90146	0.94256
3238.84766	0.94227
3236.79386	0.94211
3234.74005	0.94265
3232.68625	0.94310
3230.63245	0.94334
3228.57864	0.94354
3226.52484	0.94371
3224.47104	0.94403
3222.41724	0.94405
3220.36343	0.94373
3218.30963	0.94381
3216.25583	0.94456
3214.20202	0.94530
3212.14822	0.94527
3210.09442	0.94518
3208.04061	0.94545
3205.98681	0.94525
3203.93301	0.94483
3201.87920	0.94509
3199.82540	0.94566
3197.77160	0.94593
3195.71779	0.94618
3193.66399	0.94636
3191.61019	0.94656
3189.55638	0.94734
3187.50258	0.94815
3185.44878	0.94814
3183.39497	0.94735
3181.34117	0.94686
3179.28737	0.94741
3177.23356	0.94796
3175.17976	0.94798
3173.12596	0.94813
3171.07215	0.94862
3169.01835	0.94928
3166.96455	0.94958
3164.91075	0.94941
3162.85694	0.94951
3160.80314	0.95007
3158.74934	0.95057
3156.69553	0.95072
3154.64173	0.95056
3152.58793	0.95041
3150.53412	0.95067
3148.48032	0.95134
3146.42652	0.95175
3144.37271	0.95176
3142.31891	0.95200
3140.26511	0.95234
3138.21130	0.95233
3136.15750	0.95227
3134.10370	0.95261
3132.04989	0.95315
3129.99609	0.95331
3127.94229	0.95329
3125.88848	0.95372
3123.83468	0.95433
3121.78088	0.95466
3119.72707	0.95496
3117.67327	0.95528
3115.61947	0.95522
3113.56566	0.95488
3111.51186	0.95489
3109.45806	0.95531
3107.40426	0.95560
3105.35045	0.95559
3103.29665	0.95541
3101.24285	0.95529
3099.18904	0.95559
3097.13524	0.95619
3095.08144	0.95649
3093.02763	0.95637
3090.97383	0.95640
3088.92003	0.95695
3086.86622	0.95773
3084.81242	0.95817
3082.75862	0.95811
3080.70481	0.95785
3078.65101	0.95785
3076.59721	0.95819
3074.54340	0.95850
3072.48960	0.95849
3070.43580	0.95822
3068.38199	0.95807
3066.32819	0.95834
3064.27439	0.95878
3062.22058	0.95898
3060.16678	0.95904
3058.11298	0.95945
3056.05918	0.95991
3054.00537	0.95975
3051.95157	0.95960
3049.89777	0.96007
3047.84396	0.96045
3045.79016	0.96041
3043.73636	0.96030
3041.68255	0.96036
3039.62875	0.96063
3037.57495	0.96120
3035.52114	0.96191
3033.46734	0.96219
3031.41354	0.96173
3029.35973	0.96101
3027.30593	0.96059
3025.25213	0.96071
3023.19832	0.96126
3021.14452	0.96167
3019.09072	0.96158
3017.03691	0.96137
3014.98311	0.96132
3012.92931	0.96123
3010.87550	0.96086
3008.82170	0.96024
3006.76790	0.95982
3004.71409	0.95981
3002.66029	0.95973
3000.60649	0.95920
2998.55269	0.95848
2996.49888	0.95812
2994.44508	0.95791
2992.39128	0.95690
2990.33747	0.95503
2988.28367	0.95294
2986.22987	0.95096
2984.17606	0.94909
2982.12226	0.94679
2980.06846	0.94327
2978.01465	0.93807
2975.96085	0.93101
2973.90705	0.92178
2971.85324	0.90990
2969.79944	0.89521
2967.74564	0.87759
2965.69183	0.85745
2963.63803	0.83663
2961.58423	0.81837
2959.53042	0.80573
2957.47662	0.79756
2955.42282	0.78951
2953.36901	0.77933
2951.31521	0.76919
2949.26141	0.76594
2947.20761	0.77591
2945.15380	0.79733
2943.10000	0.82145
2941.04620	0.84028
2938.99239	0.85008
2936.93859	0.85056
2934.88479	0.84332
2932.83098	0.83029
2930.77718	0.81290
2928.72338	0.79283
2926.66957	0.77296
2924.61577	0.75521
2922.56197	0.73902
2920.50816	0.72427
2918.45436	0.71422
2916.40056	0.71329
2914.34675	0.72244
2912.29295	0.73757
2910.23915	0.75301
2908.18534	0.76642
2906.13154	0.77890
2904.07774	0.79186
2902.02393	0.80543
2899.97013	0.81873
2897.91633	0.83082
2895.86252	0.84110
2893.80872	0.84877
2891.75492	0.85308
2889.70112	0.85442
2887.64731	0.85403
2885.59351	0.85234
2883.53971	0.84893
2881.48590	0.84391
2879.43210	0.83851
2877.37830	0.83501
2875.32449	0.83470
2873.27069	0.83562
2871.21689	0.83478
2869.16308	0.83174
2867.10928	0.82968
2865.05548	0.83386
2863.00167	0.84687
2860.94787	0.86466
2858.89407	0.88057
2856.84026	0.89134
2854.78646	0.89746
2852.73266	0.89997
2850.67885	0.89913
2848.62505	0.89493
2846.57125	0.88674
2844.51744	0.87419
2842.46364	0.85856
2840.40984	0.84335
2838.35603	0.83413
2836.30223	0.83586
2834.24843	0.84944
2832.19463	0.87010
2830.14082	0.89035
2828.08702	0.90543
2826.03322	0.91531
2823.97941	0.92217
2821.92561	0.92744
2819.87181	0.93129
2817.81800	0.93404
2815.76420	0.93622
2813.71040	0.93806
2811.65659	0.93954
2809.60279	0.94080
2807.54899	0.94223
2805.49518	0.94384
2803.44138	0.94543
2801.38758	0.94704
2799.33377	0.94853
2797.27997	0.94935
2795.22617	0.94970
2793.17236	0.95047
2791.11856	0.95181
2789.06476	0.95301
2787.01095	0.95369
2784.95715	0.95436
2782.90335	0.95522
2780.84955	0.95606
2778.79574	0.95687
2776.74194	0.95748
2774.68814	0.95770
2772.63433	0.95788
2770.58053	0.95836
2768.52673	0.95879
2766.47292	0.95883
2764.41912	0.95866
2762.36532	0.95867
2760.31151	0.95889
2758.25771	0.95931
2756.20391	0.95994
2754.15010	0.96039
2752.09630	0.96054
2750.04250	0.96057
2747.98869	0.96046
2745.93489	0.96043
2743.88109	0.96063
2741.82728	0.96075
2739.77348	0.96065
2737.71968	0.96024
2735.66587	0.95950
2733.61207	0.95892
2731.55827	0.95860
2729.50446	0.95819
2727.45066	0.95774
2725.39686	0.95752
2723.34306	0.95746
2721.28925	0.95731
2719.23545	0.95754
2717.18165	0.95848
2715.12784	0.95961
2713.07404	0.96046
2711.02024	0.96080
2708.96643	0.96081
2706.91263	0.96113
2704.85883	0.96181
2702.80502	0.96227
2700.75122	0.96251
2698.69742	0.96281
2696.64361	0.96306
2694.58981	0.96301
2692.53601	0.96289
2690.48220	0.96311
2688.42840	0.96357
2686.37460	0.96387
2684.32079	0.96374
2682.26699	0.96323
2680.21319	0.96285
2678.15938	0.96299
2676.10558	0.96324
2674.05178	0.96327
2671.99797	0.96324
2669.94417	0.96333
2667.89037	0.96370
2665.83657	0.96414
2663.78276	0.96424
2661.72896	0.96392
2659.67516	0.96364
2657.62135	0.96392
2655.56755	0.96452
2653.51375	0.96475
2651.45994	0.96454
2649.40614	0.96443
2647.35234	0.96458
2645.29853	0.96468
2643.24473	0.96469
2641.19093	0.96465
2639.13712	0.96459
2637.08332	0.96473
2635.02952	0.96498
2632.97571	0.96500
2630.92191	0.96479
2628.86811	0.96469
2626.81430	0.96493
2624.76050	0.96527
2622.70670	0.96530
2620.65289	0.96523
2618.59909	0.96542
2616.54529	0.96550
2614.49149	0.96523
2612.43768	0.96511
2610.38388	0.96544
2608.33008	0.96572
2606.27627	0.96582
2604.22247	0.96609
2602.16867	0.96652
2600.11486	0.96686
2598.06106	0.96721
2596.00726	0.96760
2593.95345	0.96748
2591.89965	0.96716
2589.84585	0.96720
2587.79204	0.96719
2585.73824	0.96703
2583.68444	0.96719
2581.63063	0.96740
2579.57683	0.96720
2577.52303	0.96684
2575.46922	0.96680
2573.41542	0.96724
2571.36162	0.96789
2569.30781	0.96810
2567.25401	0.96796
2565.20021	0.96840
2563.14640	0.96909
2561.09260	0.96922
2559.03880	0.96935
2556.98500	0.96966
2554.93119	0.96963
2552.87739	0.96932
2550.82359	0.96892
2548.76978	0.96854
2546.71598	0.96885
2544.66218	0.96964
2542.60837	0.96973
2540.55457	0.96930
2538.50077	0.96885
2536.44696	0.96855
2534.39316	0.96902
2532.33936	0.96983
2530.28555	0.97013
2528.23175	0.97036
2526.17795	0.97058
2524.12414	0.97000
2522.07034	0.96910
2520.01654	0.96887
2517.96273	0.96906
2515.90893	0.96942
2513.85513	0.96996
2511.80132	0.97050
2509.74752	0.97075
2507.69372	0.97079
2505.63992	0.97136
2503.58611	0.97213
2501.53231	0.97233
2499.47851	0.97244
2497.42470	0.97227
2495.37090	0.97147
2493.31710	0.97111
2491.26329	0.97147
2489.20949	0.97152
2487.15569	0.97135
2485.10188	0.97161
2483.04808	0.97174
2480.99428	0.97125
2478.94047	0.97101
2476.88667	0.97146
2474.83287	0.97196
2472.77906	0.97210
2470.72526	0.97207
2468.67146	0.97204
2466.61765	0.97222
2464.56385	0.97260
2462.51005	0.97264
2460.45624	0.97232
2458.40244	0.97190
2456.34864	0.97143
2454.29483	0.97121
2452.24103	0.97135
2450.18723	0.97154
2448.13343	0.97177
2446.07962	0.97230
2444.02582	0.97245
2441.97202	0.97199
2439.91821	0.97176
2437.86441	0.97192
2435.81061	0.97235
2433.75680	0.97278
2431.70300	0.97263
2429.64920	0.97206
2427.59539	0.97176
2425.54159	0.97190
2423.48779	0.97207
2421.43398	0.97218
2419.38018	0.97241
2417.32638	0.97277
2415.27257	0.97314
2413.21877	0.97336
2411.16497	0.97325
2409.11116	0.97287
2407.05736	0.97261
2405.00356	0.97276
2402.94975	0.97308
2400.89595	0.97310
2398.84215	0.97291
2396.78834	0.97282
2394.73454	0.97292
2392.68074	0.97312
2390.62694	0.97306
2388.57313	0.97270
2386.51933	0.97259
2384.46553	0.97276
2382.41172	0.97268
2380.35792	0.97236
2378.30412	0.97212
2376.25031	0.97176
2374.19651	0.97132
2372.14271	0.97173
2370.08890	0.97266
2368.03510	0.97308
2365.98130	0.97327
2363.92749	0.97326
2361.87369	0.97256
2359.81989	0.97071
2357.76608	0.96912
2355.71228	0.96956
2353.65848	0.97053
2351.60467	0.97063
2349.55087	0.97052
2347.49707	0.97074
2345.44326	0.97117
2343.38946	0.97147
2341.33566	0.97165
2339.28186	0.97183
2337.22805	0.97204
2335.17425	0.97223
2333.12045	0.97193
2331.06664	0.97165
2329.01284	0.97205
2326.95904	0.97202
2324.90523	0.97101
2322.85143	0.97056
2320.79763	0.97131
2318.74382	0.97160
2316.69002	0.97124
2314.63622	0.97147
2312.58241	0.97196
2310.52861	0.97198
2308.47481	0.97194
2306.42100	0.97216
2304.36720	0.97223
2302.31340	0.97183
2300.25959	0.97155
2298.20579	0.97185
2296.15199	0.97236
2294.09818	0.97249
2292.04438	0.97196
2289.99058	0.97161
2287.93677	0.97219
2285.88297	0.97309
2283.82917	0.97391
2281.77537	0.97466
2279.72156	0.97499
2277.66776	0.97464
2275.61396	0.97430
2273.56015	0.97426
2271.50635	0.97406
2269.45255	0.97429
2267.39874	0.97453
2265.34494	0.97346
2263.29114	0.97206
2261.23733	0.97262
2259.18353	0.97416
2257.12973	0.97404
2255.07592	0.97335
2253.02212	0.97356
2250.96832	0.97361
2248.91451	0.97285
2246.86071	0.97262
2244.80691	0.97375
2242.75310	0.97454
2240.69930	0.97423
2238.64550	0.97465
2236.59169	0.97532
2234.53789	0.97426
2232.48409	0.97312
2230.43029	0.97281
2228.37648	0.97290
2226.32268	0.97407
2224.26888	0.97512
2222.21507	0.97478
2220.16127	0.97454
2218.10747	0.97502
2216.05366	0.97433
2213.99986	0.97313
2211.94606	0.97342
2209.89225	0.97351
2207.83845	0.97240
2205.78465	0.97215
2203.73084	0.97356
2201.67704	0.97570
2199.62324	0.97729
2197.56943	0.97693
2195.51563	0.97560
2193.46183	0.97547
2191.40802	0.97538
2189.35422	0.97390
2187.30042	0.97332
2185.24661	0.97458
2183.19281	0.97620
2181.13901	0.97802
2179.08520	0.97816
2177.03140	0.97578
2174.97760	0.97505
2172.92380	0.97751
2170.86999	0.97908
2168.81619	0.97720
2166.76239	0.97510
2164.70858	0.97555
2162.65478	0.97608
2160.60098	0.97668
2158.54717	0.97899
2156.49337	0.98043
2154.43957	0.97998
2152.38576	0.98006
2150.33196	0.98140
2148.27816	0.98274
2146.22435	0.98260
2144.17055	0.97955
2142.11675	0.97580
2140.06294	0.97475
2138.00914	0.97665
2135.95534	0.97958
2133.90153	0.98034
2131.84773	0.97797
2129.79393	0.97536
2127.74012	0.97598
2125.68632	0.97831
2123.63252	0.97897
2121.57871	0.97863
2119.52491	0.97775
2117.47111	0.97595
2115.41731	0.97467
2113.36350	0.97447
2111.30970	0.97425
2109.25590	0.97371
2107.20209	0.97444
2105.14829	0.97659
2103.09449	0.97793
2101.04068	0.97752
2098.98688	0.97605
2096.93308	0.97490
2094.87927	0.97525
2092.82547	0.97678
2090.77167	0.97819
2088.71786	0.97810
2086.66406	0.97685
2084.61026	0.97660
2082.55645	0.97760
2080.50265	0.97759
2078.44885	0.97637
2076.39504	0.97524
2074.34124	0.97435
2072.28744	0.97437
2070.23363	0.97539
2068.17983	0.97550
2066.12603	0.97423
2064.07223	0.97362
2062.01842	0.97433
2059.96462	0.97469
2057.91082	0.97444
2055.85701	0.97480
2053.80321	0.97499
2051.74941	0.97373
2049.69560	0.97243
2047.64180	0.97253
2045.58800	0.97246
2043.53419	0.97141
2041.48039	0.97247
2039.42659	0.97576
2037.37278	0.97735
2035.31898	0.97648
2033.26518	0.97539
2031.21137	0.97606
2029.15757	0.97825
2027.10377	0.97960
2025.04996	0.97892
2022.99616	0.97765
2020.94236	0.97773
2018.88855	0.97783
2016.83475	0.97651
2014.78095	0.97698
2012.72714	0.97951
2010.67334	0.98000
2008.61954	0.97870
2006.56574	0.97834
2004.51193	0.97975
2002.45813	0.98165
2000.40433	0.98123
1998.35052	0.97986
1996.29672	0.98051
1994.24292	0.98160
1992.18911	0.98117
1990.13531	0.97953
1988.08151	0.97770
1986.02770	0.97646
1983.97390	0.97651
1981.92010	0.97752
1979.86629	0.97839
1977.81249	0.97914
1975.75869	0.98000
1973.70488	0.98110
1971.65108	0.98115
1969.59728	0.97875
1967.54347	0.97660
1965.48967	0.97831
1963.43587	0.98128
1961.38206	0.98102
1959.32826	0.97894
1957.27446	0.97780
1955.22066	0.97703
1953.16685	0.97656
1951.11305	0.97578
1949.05925	0.97502
1947.00544	0.97716
1944.95164	0.98099
1942.89784	0.98188
1940.84403	0.97963
1938.79023	0.97775
1936.73643	0.97712
1934.68262	0.97701
1932.62882	0.97707
1930.57502	0.97730
1928.52121	0.97735
1926.46741	0.97718
1924.41361	0.97758
1922.35980	0.97904
1920.30600	0.98007
1918.25220	0.97952
1916.19839	0.97850
1914.14459	0.97718
1912.09079	0.97574
1910.03698	0.97537
1907.98318	0.97538
1905.92938	0.97496
1903.87557	0.97465
1901.82177	0.97497
1899.76797	0.97567
1897.71417	0.97553
1895.66036	0.97481
1893.60656	0.97531
1891.55276	0.97695
1889.49895	0.97813
1887.44515	0.97785
1885.39135	0.97713
1883.33754	0.97677
1881.28374	0.97633
1879.22994	0.97613
1877.17613	0.97625
1875.12233	0.97594
1873.06853	0.97561
1871.01472	0.97603
1868.96092	0.97686
1866.90712	0.97718
1864.85331	0.97676
1862.79951	0.97654
1860.74571	0.97678
1858.69190	0.97672
1856.63810	0.97625
1854.58430	0.97600
1852.53049	0.97595
1850.47669	0.97586
1848.42289	0.97609
1846.36908	0.97615
1844.31528	0.97558
1842.26148	0.97543
1840.20768	0.97570
1838.15387	0.97586
1836.10007	0.97610
1834.04627	0.97635
1831.99246	0.97629
1829.93866	0.97608
1827.88486	0.97621
1825.83105	0.97650
1823.77725	0.97637
1821.72345	0.97583
1819.66964	0.97539
1817.61584	0.97537
1815.56204	0.97557
1813.50823	0.97578
1811.45443	0.97610
1809.40063	0.97604
1807.34682	0.97532
1805.29302	0.97435
1803.23922	0.97384
1801.18541	0.97384
1799.13161	0.97386
1797.07781	0.97380
1795.02400	0.97350
1792.97020	0.97258
1790.91640	0.97108
1788.86260	0.96987
1786.80879	0.96895
1784.75499	0.96801
1782.70119	0.96715
1780.64738	0.96629
1778.59358	0.96549
1776.53978	0.96497
1774.48597	0.96449
1772.43217	0.96399
1770.37837	0.96374
1768.32456	0.96325
1766.27076	0.96235
1764.21696	0.96172
1762.16315	0.96142
1760.10935	0.96115
1758.05555	0.96059
1756.00174	0.95940
1753.94794	0.95831
1751.89414	0.95750
1749.84033	0.95599
1747.78653	0.95364
1745.73273	0.95150
1743.67892	0.94985
1741.62512	0.94844
1739.57132	0.94718
1737.51751	0.94644
1735.46371	0.94606
1733.40991	0.94550
1731.35611	0.94486
1729.30230	0.94418
1727.24850	0.94358
1725.19470	0.94265
1723.14089	0.94114
1721.08709	0.94005
1719.03329	0.93940
1716.97948	0.93763
1714.92568	0.93513
1712.87188	0.93374
1710.81807	0.93343
1708.76427	0.93384
1706.71047	0.93470
1704.65666	0.93585
1702.60286	0.93712
1700.54906	0.93884
1698.49525	0.93991
1696.44145	0.93964
1694.38765	0.93920
1692.33384	0.93929
1690.28004	0.93979
1688.22624	0.94017
1686.17243	0.94022
1684.11863	0.93968
1682.06483	0.93881
1680.01103	0.93823
1677.95722	0.93787
1675.90342	0.93746
1673.84962	0.93676
1671.79581	0.93623
1669.74201	0.93581
1667.68821	0.93483
1665.63440	0.93365
1663.58060	0.93267
1661.52680	0.93169
1659.47299	0.93083
1657.41919	0.93032
1655.36539	0.92981
1653.31158	0.92857
1651.25778	0.92829
1649.20398	0.92880
1647.15017	0.92870
1645.09637	0.92837
1643.04257	0.92816
1640.98876	0.92773
1638.93496	0.92737
1636.88116	0.92720
1634.82735	0.92694
1632.77355	0.92692
1630.71975	0.92707
1628.66594	0.92672
1626.61214	0.92574
1624.55834	0.92479
1622.50454	0.92425
1620.45073	0.92432
1618.39693	0.92486
1616.34313	0.92571
1614.28932	0.92681
1612.23552	0.92807
1610.18172	0.92933
1608.12791	0.93034
1606.07411	0.93133
1604.02031	0.93249
1601.96650	0.93331
1599.91270	0.93366
1597.85890	0.93415
1595.80509	0.93500
1593.75129	0.93587
1591.69749	0.93651
1589.64368	0.93708
1587.58988	0.93762
1585.53608	0.93814
1583.48227	0.93902
1581.42847	0.94005
1579.37467	0.94057
1577.32086	0.94061
1575.26706	0.94081
1573.21326	0.94162
1571.15945	0.94259
1569.10565	0.94338
1567.05185	0.94373
1564.99805	0.94377
1562.94424	0.94371
1560.89044	0.94398
1558.83664	0.94523
1556.78283	0.94613
1554.72903	0.94619
1552.67523	0.94654
1550.62142	0.94731
1548.56762	0.94805
1546.51382	0.94868
1544.46001	0.94923
1542.40621	0.94986
1540.35241	0.95123
1538.29860	0.95257
1536.24480	0.95314
1534.19100	0.95350
1532.13719	0.95391
1530.08339	0.95440
1528.02959	0.95516
1525.97578	0.95634
1523.92198	0.95752
1521.86818	0.95823
1519.81437	0.95855
1517.76057	0.95898
1515.70677	0.95923
1513.65297	0.95911
1511.59916	0.95899
1509.54536	0.95891
1507.49156	0.95891
1505.43775	0.95939
1503.38395	0.95969
1501.33015	0.95979
1499.27634	0.95987
1497.22254	0.96000
1495.16874	0.96002
1493.11493	0.95970
1491.06113	0.95895
1489.00733	0.95766
1486.95352	0.95628
1484.89972	0.95518
1482.84592	0.95380
1480.79211	0.95155
1478.73831	0.94861
1476.68451	0.94489
1474.63070	0.93857
1472.57690	0.92538
1470.52310	0.90860
1468.46929	0.89408
1466.41549	0.87727
1464.36169	0.85637
1462.30788	0.84127
1460.25408	0.83427
1458.20028	0.82899
1456.14648	0.82259
1454.09267	0.81952
1452.03887	0.82003
1449.98507	0.82538
1447.93126	0.83905
1445.87746	0.85819
1443.82366	0.87515
1441.76985	0.88732
1439.71605	0.89383
1437.66225	0.89554
1435.60844	0.89651
1433.55464	0.90213
1431.50084	0.91078
1429.44703	0.91863
1427.39323	0.92318
1425.33943	0.92567
1423.28562	0.92738
1421.23182	0.92841
1419.17802	0.92890
1417.12421	0.92921
1415.07041	0.92978
1413.01661	0.93045
1410.96280	0.93101
1408.90900	0.93154
1406.85520	0.93224
1404.80139	0.93300
1402.74759	0.93368
1400.69379	0.93417
1398.63999	0.93456
1396.58618	0.93489
1394.53238	0.93474
1392.47858	0.93387
1390.42477	0.93220
1388.37097	0.92842
1386.31717	0.91987
1384.26336	0.90485
1382.20956	0.87913
1380.15576	0.83686
1378.10195	0.78604
1376.04815	0.75476
1373.99435	0.76774
1371.94054	0.81071
1369.88674	0.85116
1367.83294	0.87900
1365.77913	0.89296
1363.72533	0.89667
1361.67153	0.89373
1359.61772	0.89004
1357.56392	0.89148
1355.51012	0.89871
1353.45631	0.90821
1351.40251	0.91633
1349.34871	0.92228
1347.29491	0.92646
1345.24110	0.92937
1343.18730	0.93148
1341.13350	0.93300
1339.07969	0.93391
1337.02589	0.93408
1334.97209	0.93351
1332.91828	0.93244
1330.86448	0.93121
1328.81068	0.93034
1326.75687	0.93051
1324.70307	0.93178
1322.64927	0.93309
1320.59546	0.93374
1318.54166	0.93406
1316.48786	0.93445
1314.43405	0.93503
1312.38025	0.93551
1310.32645	0.93519
1308.27264	0.93350
1306.21884	0.93068
1304.16504	0.92866
1302.11123	0.92898
1300.05743	0.93031
1298.00363	0.93078
1295.94982	0.93062
1293.89602	0.93098
1291.84222	0.93204
1289.78842	0.93309
1287.73461	0.93372
1285.68081	0.93410
1283.62701	0.93428
1281.57320	0.93418
1279.51940	0.93391
1277.46560	0.93360
1275.41179	0.93311
1273.35799	0.93254
1271.30419	0.93224
1269.25038	0.93208
1267.19658	0.93181
1265.14278	0.93116
1263.08897	0.92982
1261.03517	0.92790
1258.98137	0.92553
1256.92756	0.92309
1254.87376	0.92191
1252.81996	0.92269
1250.76615	0.92415
1248.71235	0.92499
1246.65855	0.92507
1244.60474	0.92472
1242.55094	0.92424
1240.49714	0.92369
1238.44334	0.92300
1236.38953	0.92231
1234.33573	0.92182
1232.28193	0.92139
1230.22812	0.92074
1228.17432	0.91976
1226.12052	0.91843
1224.06671	0.91697
1222.01291	0.91557
1219.95911	0.91430
1217.90530	0.91336
1215.85150	0.91276
1213.79770	0.91224
1211.74389	0.91178
1209.69009	0.91128
1207.63629	0.91050
1205.58248	0.90942
1203.52868	0.90831
1201.47488	0.90716
1199.42107	0.90588
1197.36727	0.90441
1195.31347	0.90254
1193.25966	0.90021
1191.20586	0.89772
1189.15206	0.89535
1187.09825	0.89298
1185.04445	0.89025
1182.99065	0.88708
1180.93685	0.88344
1178.88304	0.87900
1176.82924	0.87360
1174.77544	0.86695
1172.72163	0.85821
1170.66783	0.84761
1168.61403	0.83784
1166.56022	0.83217
1164.50642	0.83139
1162.45262	0.83344
1160.39881	0.83588
1158.34501	0.83737
1156.29121	0.83730
1154.23740	0.83612
1152.18360	0.83507
1150.12980	0.83476
1148.07599	0.83509
1146.02219	0.83563
1143.96839	0.83609
1141.91458	0.83640
1139.86078	0.83650
1137.80698	0.83645
1135.75317	0.83608
1133.69937	0.83540
1131.64557	0.83451
1129.59176	0.83320
1127.53796	0.83123
1125.48416	0.82859
1123.43036	0.82563
1121.37655	0.82281
1119.32275	0.82002
1117.26895	0.81694
1115.21514	0.81391
1113.16134	0.81128
1111.10754	0.80893
1109.05373	0.80639
1106.99993	0.80318
1104.94613	0.79961
1102.89232	0.79676
1100.83852	0.79548
1098.78472	0.79572
1096.73091	0.79691
1094.67711	0.79832
1092.62331	0.79906
1090.56950	0.79905
1088.51570	0.79907
1086.46190	0.79948
1084.40809	0.79996
1082.35429	0.80023
1080.30049	0.80019
1078.24668	0.79994
1076.19288	0.79967
1074.13908	0.79927
1072.08528	0.79870
1070.03147	0.79796
1067.97767	0.79647
1065.92387	0.79411
1063.87006	0.79175
1061.81626	0.78939
1059.76246	0.78665
1057.70865	0.78382
1055.65485	0.78057
1053.60105	0.77642
1051.54724	0.77185
1049.49344	0.76715
1047.43964	0.76220
1045.38583	0.75723
1043.33203	0.75283
1041.27823	0.74933
1039.22442	0.74663
1037.17062	0.74443
1035.11682	0.74271
1033.06301	0.74218
1031.00921	0.74325
1028.95541	0.74514
1026.90160	0.74703
1024.84780	0.74906
1022.79400	0.75142
1020.74019	0.75336
1018.68639	0.75444
1016.63259	0.75505
1014.57879	0.75544
1012.52498	0.75597
1010.47118	0.75664
1008.41738	0.75701
1006.36357	0.75715
1004.30977	0.75666
1002.25597	0.75400
1000.20216	0.74886
998.14836	0.74584
996.09456	0.75116
994.04075	0.76441
991.98695	0.77945
989.93315	0.79181
987.87934	0.80093
985.82554	0.80792
983.77174	0.81333
981.71793	0.81672
979.66413	0.81747
977.61033	0.81489
975.55652	0.80904
973.50272	0.80438
971.44892	0.80822
969.39511	0.82140
967.34131	0.83627
965.28751	0.84714
963.23371	0.85440
961.17990	0.85953
959.12610	0.86345
957.07230	0.86653
955.01849	0.86892
952.96469	0.87109
950.91089	0.87302
948.85708	0.87422
946.80328	0.87459
944.74948	0.87474
942.69567	0.87497
940.64187	0.87570
938.58807	0.87782
936.53426	0.88060
934.48046	0.88283
932.42666	0.88457
930.37285	0.88599
928.31905	0.88702
926.26525	0.88773
924.21144	0.88789
922.15764	0.88736
920.10384	0.88647
918.05003	0.88592
915.99623	0.88596
913.94243	0.88613
911.88862	0.88656
909.83482	0.88764
907.78102	0.88919
905.72722	0.89030
903.67341	0.88966
901.61961	0.88695
899.56581	0.88517
897.51200	0.88839
895.45820	0.89555
893.40440	0.90193
891.35059	0.90595
889.29679	0.90851
887.24299	0.91010
885.18918	0.91137
883.13538	0.91226
881.08158	0.91260
879.02777	0.91311
876.97397	0.91395
874.92017	0.91475
872.86636	0.91562
870.81256	0.91704
868.75876	0.91905
866.70495	0.92062
864.65115	0.92106
862.59735	0.92099
860.54354	0.92126
858.48974	0.92177
856.43594	0.92169
854.38213	0.92129
852.32833	0.92114
850.27453	0.92108
848.22073	0.91968
846.16692	0.91352
844.11312	0.90063
842.05932	0.88690
840.00551	0.88480
837.95171	0.89594
835.89791	0.90800
833.84410	0.91434
831.79030	0.91722
829.73650	0.91899
827.68269	0.92054
825.62889	0.92154
823.57509	0.92117
821.52128	0.91938
819.46748	0.91761
817.41368	0.91675
815.35987	0.91499
813.30607	0.90993
811.25227	0.90253
809.19846	0.89736
807.14466	0.89732
805.09086	0.90045
803.03705	0.90299
800.98325	0.90396
798.92945	0.90455
796.87565	0.90511
794.82184	0.90598
792.76804	0.90738
790.71424	0.90867
788.66043	0.90960
786.60663	0.91001
784.55283	0.90928
782.49902	0.90788
780.44522	0.90739
778.39142	0.90806
776.33761	0.90909
774.28381	0.91025
772.23001	0.91130
770.17620	0.91185
768.12240	0.91217
766.06860	0.91195
764.01479	0.91089
761.96099	0.91005
759.90719	0.91010
757.85338	0.91058
755.79958	0.91108
753.74578	0.91166
751.69197	0.91217
749.63817	0.91169
747.58437	0.91047
745.53056	0.90975
743.47676	0.90991
741.42296	0.91089
739.36916	0.91208
737.31535	0.91263
735.26155	0.91220
733.20775	0.91100
731.15394	0.91000
729.10014	0.90950
727.04634	0.90942
724.99253	0.91004
722.93873	0.91050
720.88493	0.91024
718.83112	0.91014
716.77732	0.91007
714.72352	0.90906
712.66971	0.90798
710.61591	0.90827
708.56211	0.90811
706.50830	0.90586
704.45450	0.90341
702.40070	0.90175
700.34689	0.90037
698.29309	0.89895
696.23929	0.89711
694.18548	0.89541
692.13168	0.89462
690.07788	0.89485
688.02408	0.89569
685.97027	0.89613
683.91647	0.89609
681.86267	0.89581
679.80886	0.89426
677.75506	0.89236
675.70126	0.89178
673.64745	0.89126
671.59365	0.89013
669.53985	0.89042
667.48604	0.89241
665.43224	0.89296
663.37844	0.89307
661.32463	0.89347
659.27083	0.89334
657.21703	0.89269
655.16322	0.89204
653.10942	0.89169
651.05562	0.89129
649.00181	0.89042
646.94801	0.88985
644.89421	0.89026
642.84040	0.89100
640.78660	0.89127
638.73280	0.89115
636.67899	0.89073
634.62519	0.88898
632.57139	0.88678
630.51759	0.88592
628.46378	0.88566
626.40998	0.88592
624.35618	0.88693
622.30237	0.88664
620.24857	0.88480
618.19477	0.88313
616.14096	0.88138
614.08716	0.87896
612.03336	0.87632
609.97955	0.87378
607.92575	0.87126
605.87195	0.86839
603.81814	0.86587
601.76434	0.86478
599.71054	0.86475
597.65673	0.86478
595.60293	0.86516
593.54913	0.86667
591.49532	0.86784
589.44152	0.86766
587.38772	0.86667
585.33391	0.86495
583.28011	0.86277
581.22631	0.86127
579.17250	0.86162
577.11870	0.86322
575.06490	0.86484
573.01110	0.86481
570.95729	0.86279
568.90349	0.86104
566.84969	0.86019
564.79588	0.86021
562.74208	0.86058
560.68828	0.85956
558.63447	0.85705
556.58067	0.85374
554.52687	0.85151
552.47306	0.85008
550.41926	0.84719
548.36546	0.84477
546.31165	0.84381
544.25785	0.84185
542.20405	0.83737
540.15024	0.83188
538.09644	0.82883
536.04264	0.82765
533.98883	0.82567
531.93503	0.82324
529.88123	0.82266
527.82742	0.82478
525.77362	0.82704
523.71982	0.82840
521.66602	0.83132
519.61221	0.83607
517.55841	0.83939
515.50461	0.83917
513.45080	0.83847
511.39700	0.84007
509.34320	0.84279
507.28939	0.84514
505.23559	0.84740
503.18179	0.84929
501.12798	0.84939
499.07418	0.84849
497.02038	0.84934
494.96657	0.85021
492.91277	0.84739
490.85897	0.84350
488.80516	0.84217
486.75136	0.84093
484.69756	0.83720
482.64375	0.83198
480.58995	0.82520
478.53615	0.81610
476.48234	0.80813
474.42854	0.80389
472.37474	0.79981
470.32093	0.79354
468.26713	0.78795
466.21333	0.78562
464.15953	0.78687
462.10572	0.78962
460.05192	0.79298
457.99812	0.79881
455.94431	0.80550
453.89051	0.81163
451.83671	0.81819
449.78290	0.82159
447.72910	0.82405
445.67530	0.82820
443.62149	0.82847
441.56769	0.82617
439.51389	0.82788
437.46008	0.83012
435.40628	0.82677
433.35248	0.82127
431.29867	0.82000
429.24487	0.82474
427.19107	0.83005
425.13726	0.82931
423.08346	0.82796
421.02966	0.83245
418.97585	0.83635
416.92205	0.83736
414.86825	0.84377
412.81445	0.85108
410.76064	0.85560
408.70684	0.86151
406.65304	0.86624
404.59923	0.86327
402.54543	0.85634
400.49163	0.85317
398.43782	0.85449
