3996.71440	0.99484
3994.66059	0.99489
3992.60678	0.99487
3990.55297	0.99467
3988.49916	0.99461
3986.44535	0.99467
3984.39154	0.99470
3982.33773	0.99483
3980.28391	0.99497
3978.23010	0.99475
3976.17629	0.99460
3974.12248	0.99484
3972.06867	0.99509
3970.01486	0.99509
3967.96105	0.99476
3965.90724	0.99444
3963.85343	0.99439
3961.79962	0.99434
3959.74581	0.99442
3957.69200	0.99480
3955.63819	0.99498
3953.58438	0.99492
3951.53057	0.99503
3949.47676	0.99516
3947.42295	0.99500
3945.36914	0.99485
3943.31533	0.99470
3941.26152	0.99427
3939.20771	0.99410
3937.15390	0.99436
3935.10009	0.99449
3933.04628	0.99441
3930.99247	0.99442
3928.93866	0.99458
3926.88485	0.99464
3924.83104	0.99458
3922.77723	0.99488
3920.72342	0.99545
3918.66961	0.99556
3916.61580	0.99513
3914.56199	0.99466
3912.50818	0.99445
3910.45437	0.99437
3908.40056	0.99426
3906.34675	0.99434
3904.29294	0.99452
3902.23913	0.99446
3900.18532	0.99454
3898.13151	0.99475
3896.07770	0.99465
3894.02389	0.99460
3891.97008	0.99468
3889.91627	0.99465
3887.86246	0.99459
3885.80865	0.99441
3883.75484	0.99428
3881.70103	0.99426
3879.64722	0.99420
3877.59341	0.99424
3875.53960	0.99438
3873.48579	0.99465
3871.43198	0.99500
3869.37817	0.99488
3867.32436	0.99422
3865.27055	0.99368
3863.21674	0.99364
3861.16293	0.99411
3859.10912	0.99472
3857.05531	0.99507
3855.00150	0.99481
3852.94769	0.99414
3850.89388	0.99430
3848.84007	0.99490
3846.78626	0.99517
3844.73245	0.99502
3842.67864	0.99488
3840.62483	0.99502
3838.57102	0.99482
3836.51721	0.99427
3834.46340	0.99417
3832.40959	0.99410
3830.35578	0.99377
3828.30197	0.99376
3826.24816	0.99412
3824.19435	0.99441
3822.14054	0.99431
3820.08673	0.99394
3818.03292	0.99367
3815.97911	0.99352
3813.92530	0.99379
3811.87149	0.99408
3809.81768	0.99394
3807.76387	0.99377
3805.71006	0.99394
3803.65625	0.99425
3801.60244	0.99435
3799.54863	0.99421
3797.49482	0.99401
3795.44101	0.99405
3793.38720	0.99437
3791.33339	0.99441
3789.27958	0.99427
3787.22577	0.99422
3785.17196	0.99413
3783.11815	0.99401
3781.06434	0.99384
3779.01053	0.99369
3776.95672	0.99371
3774.90291	0.99365
3772.84910	0.99354
3770.79529	0.99369
3768.74148	0.99381
3766.68767	0.99375
3764.63386	0.99374
3762.58005	0.99389
3760.52624	0.99400
3758.47243	0.99374
3756.41862	0.99329
3754.36481	0.99318
3752.31100	0.99367
3750.25719	0.99447
3748.20338	0.99471
3746.14957	0.99437
3744.09576	0.99353
3742.04195	0.99297
3739.98814	0.99319
3737.93433	0.99362
3735.88052	0.99382
3733.82671	0.99395
3731.77290	0.99413
3729.71909	0.99398
3727.66528	0.99331
3725.61147	0.99249
3723.55766	0.99198
3721.50385	0.99178
3719.45004	0.99181
3717.39623	0.99215
3715.34242	0.99247
3713.28861	0.99250
3711.23480	0.99238
3709.18099	0.99216
3707.12718	0.99192
3705.07337	0.99181
3703.01956	0.99172
3700.96575	0.99139
3698.91194	0.99103
3696.85813	0.99070
3694.80432	0.99023
3692.75051	0.98995
3690.69670	0.98989
3688.64289	0.98967
3686.58907	0.98947
3684.53526	0.98939
3682.48145	0.98931
3680.42764	0.98927
3678.37383	0.98911
3676.32002	0.98845
3674.26621	0.98772
3672.21240	0.98794
3670.15859	0.98814
3668.10478	0.98766
3666.05097	0.98721
3663.99716	0.98687
3661.94335	0.98638
3659.88954	0.98595
3657.83573	0.98556
3655.78192	0.98472
3653.72811	0.98412
3651.67430	0.98439
3649.62049	0.98436
3647.56668	0.98299
3645.51287	0.98196
3643.45906	0.98158
3641.40525	0.98142
3639.35144	0.98134
3637.29763	0.98075
3635.24382	0.97973
3633.19001	0.97897
3631.13620	0.97831
3629.08239	0.97738
3627.02858	0.97701
3624.97477	0.97706
3622.92096	0.97687
3620.86715	0.97657
3618.81334	0.97609
3616.75953	0.97548
3614.70572	0.97497
3612.65191	0.97468
3610.59810	0.97449
3608.54429	0.97401
3606.49048	0.97333
3604.43667	0.97288
3602.38286	0.97258
3600.32905	0.97219
3598.27524	0.97175
3596.22143	0.97138
3594.16762	0.97083
3592.11381	0.97034
3590.06000	0.97012
3588.00619	0.96946
3585.95238	0.96847
3583.89857	0.96791
3581.84476	0.96753
3579.79095	0.96711
3577.73714	0.96664
3575.68333	0.96612
3573.62952	0.96576
3571.57571	0.96554
3569.52190	0.96516
3567.46809	0.96430
3565.41428	0.96340
3563.36047	0.96332
3561.30666	0.96340
3559.25285	0.96304
3557.19904	0.96282
3555.14523	0.96270
3553.09142	0.96218
3551.03761	0.96163
3548.98380	0.96104
3546.92999	0.95990
3544.87618	0.95897
3542.82237	0.95900
3540.76856	0.95919
3538.71475	0.95860
3536.66094	0.95754
3534.60713	0.95704
3532.55332	0.95710
3530.49951	0.95699
3528.44570	0.95665
3526.39189	0.95644
3524.33808	0.95618
3522.28427	0.95565
3520.23046	0.95509
3518.17665	0.95451
3516.12284	0.95391
3514.06903	0.95363
3512.01522	0.95356
3509.96141	0.95324
3507.90760	0.95281
3505.85379	0.95266
3503.79998	0.95233
3501.74617	0.95165
3499.69236	0.95126
3497.63855	0.95129
3495.58474	0.95126
3493.53093	0.95087
3491.47712	0.95041
3489.42331	0.95019
3487.36950	0.95006
3485.31569	0.94982
3483.26188	0.94958
3481.20807	0.94947
3479.15426	0.94933
3477.10045	0.94905
3475.04664	0.94853
3472.99283	0.94758
3470.93902	0.94679
3468.88521	0.94663
3466.83140	0.94672
3464.77759	0.94652
3462.72378	0.94597
3460.66997	0.94563
3458.61616	0.94562
3456.56235	0.94554
3454.50854	0.94536
3452.45473	0.94511
3450.40092	0.94477
3448.34711	0.94436
3446.29330	0.94397
3444.23949	0.94356
3442.18568	0.94295
3440.13187	0.94246
3438.07806	0.94246
3436.02425	0.94258
3433.97044	0.94259
3431.91663	0.94260
3429.86282	0.94252
3427.80901	0.94239
3425.75520	0.94243
3423.70139	0.94261
3421.64758	0.94257
3419.59377	0.94210
3417.53996	0.94156
3415.48615	0.94124
3413.43234	0.94102
3411.37853	0.94070
3409.32472	0.94038
3407.27091	0.94025
3405.21710	0.94035
3403.16329	0.94063
3401.10948	0.94071
3399.05567	0.94048
3397.00186	0.94031
3394.94805	0.94050
3392.89424	0.94069
3390.84042	0.94054
3388.78661	0.94025
3386.73280	0.93999
3384.67899	0.93983
3382.62518	0.93983
3380.57137	0.94006
3378.51756	0.94039
3376.46375	0.94058
3374.40994	0.94057
3372.35613	0.94049
3370.30232	0.94030
3368.24851	0.94020
3366.19470	0.94046
3364.14089	0.94074
3362.08708	0.94084
3360.03327	0.94068
3357.97946	0.94031
3355.92565	0.94015
3353.87184	0.94021
3351.81803	0.94020
3349.76422	0.94026
3347.71041	0.94055
3345.65660	0.94085
3343.60279	0.94094
3341.54898	0.94075
3339.49517	0.94056
3337.44136	0.94065
3335.38755	0.94083
3333.33374	0.94099
3331.27993	0.94133
3329.22612	0.94169
3327.17231	0.94176
3325.11850	0.94194
3323.06469	0.94234
3321.01088	0.94266
3318.95707	0.94281
3316.90326	0.94272
3314.84945	0.94261
3312.79564	0.94249
3310.74183	0.94227
3308.68802	0.94211
3306.63421	0.94226
3304.58040	0.94270
3302.52659	0.94287
3300.47278	0.94282
3298.41897	0.94303
3296.36516	0.94320
3294.31135	0.94317
3292.25754	0.94316
3290.20373	0.94322
3288.14992	0.94335
3286.09611	0.94346
3284.04230	0.94381
3281.98849	0.94435
3279.93468	0.94444
3277.88087	0.94430
3275.82706	0.94449
3273.77325	0.94467
3271.71944	0.94464
3269.66563	0.94478
3267.61182	0.94512
3265.55801	0.94531
3263.50420	0.94558
3261.45039	0.94615
3259.39658	0.94645
3257.34277	0.94657
3255.28896	0.94688
3253.23515	0.94692
3251.18134	0.94668
3249.12753	0.94659
3247.07372	0.94673
3245.01991	0.94701
3242.96610	0.94730
3240.91229	0.94760
3238.85848	0.94793
3236.80467	0.94825
3234.75086	0.94859
3232.69705	0.94892
3230.64324	0.94921
3228.58943	0.94950
3226.53562	0.94956
3224.48181	0.94942
3222.42800	0.94937
3220.37419	0.94928
3218.32038	0.94916
3216.26657	0.94939
3214.21276	0.94991
3212.15895	0.95032
3210.10514	0.95049
3208.05133	0.95045
3205.99752	0.95048
3203.94371	0.95086
3201.88990	0.95131
3199.83609	0.95148
3197.78228	0.95147
3195.72847	0.95153
3193.67466	0.95172
3191.62085	0.95198
3189.56704	0.95218
3187.51323	0.95217
3185.45942	0.95217
3183.40561	0.95254
3181.35180	0.95305
3179.29799	0.95347
3177.24418	0.95381
3175.19037	0.95411
3173.13656	0.95443
3171.08275	0.95495
3169.02894	0.95547
3166.97513	0.95557
3164.92132	0.95557
3162.86751	0.95572
3160.81370	0.95580
3158.75989	0.95601
3156.70608	0.95646
3154.65227	0.95670
3152.59846	0.95673
3150.54465	0.95679
3148.49084	0.95697
3146.43703	0.95720
3144.38322	0.95721
3142.32941	0.95730
3140.27560	0.95795
3138.22179	0.95871
3136.16798	0.95908
3134.11417	0.95916
3132.06036	0.95925
3130.00655	0.95948
3127.95274	0.95964
3125.89893	0.95979
3123.84512	0.96006
3121.79131	0.96042
3119.73750	0.96078
3117.68369	0.96097
3115.62988	0.96107
3113.57607	0.96118
3111.52226	0.96135
3109.46845	0.96177
3107.41464	0.96230
3105.36083	0.96272
3103.30702	0.96304
3101.25321	0.96306
3099.19940	0.96285
3097.14559	0.96290
3095.09177	0.96327
3093.03796	0.96355
3090.98415	0.96360
3088.93034	0.96370
3086.87653	0.96397
3084.82272	0.96445
3082.76891	0.96496
3080.71510	0.96495
3078.66129	0.96455
3076.60748	0.96447
3074.55367	0.96482
3072.49986	0.96526
3070.44605	0.96550
3068.39224	0.96566
3066.33843	0.96584
3064.28462	0.96595
3062.23081	0.96609
3060.17700	0.96639
3058.12319	0.96676
3056.06938	0.96701
3054.01557	0.96704
3051.96176	0.96699
3049.90795	0.96709
3047.85414	0.96744
3045.80033	0.96786
3043.74652	0.96806
3041.69271	0.96806
3039.63890	0.96807
3037.58509	0.96819
3035.53128	0.96835
3033.47747	0.96851
3031.42366	0.96873
3029.36985	0.96887
3027.31604	0.96889
3025.26223	0.96890
3023.20842	0.96889
3021.15461	0.96892
3019.10080	0.96893
3017.04699	0.96880
3014.99318	0.96872
3012.93937	0.96876
3010.88556	0.96890
3008.83175	0.96904
3006.77794	0.96882
3004.72413	0.96840
3002.67032	0.96816
3000.61651	0.96798
2998.56270	0.96759
2996.50889	0.96701
2994.45508	0.96625
2992.40127	0.96519
2990.34746	0.96401
2988.29365	0.96281
2986.23984	0.96137
2984.18603	0.95957
2982.13222	0.95739
2980.07841	0.95464
2978.02460	0.95093
2975.97079	0.94603
2973.91698	0.93990
2971.86317	0.93215
2969.80936	0.92219
2967.75555	0.91022
2965.70174	0.89725
2963.64793	0.88492
2961.59412	0.87545
2959.54031	0.87015
2957.48650	0.86717
2955.43269	0.86289
2953.37888	0.85617
2951.32507	0.85002
2949.27126	0.84917
2947.21745	0.85623
2945.16364	0.86920
2943.10983	0.88290
2941.05602	0.89298
2939.00221	0.89765
2936.94840	0.89697
2934.89459	0.89179
2932.84078	0.88310
2930.78697	0.87173
2928.73316	0.85858
2926.67935	0.84499
2924.62554	0.83219
2922.57173	0.82071
2920.51792	0.81111
2918.46411	0.80564
2916.41030	0.80737
2914.35649	0.81628
2912.30268	0.82837
2910.24887	0.83943
2908.19506	0.84812
2906.14125	0.85571
2904.08744	0.86360
2902.03363	0.87191
2899.97982	0.88011
2897.92601	0.88744
2895.87220	0.89342
2893.81839	0.89782
2891.76458	0.90059
2889.71077	0.90195
2887.65696	0.90220
2885.60315	0.90169
2883.54934	0.90033
2881.49553	0.89793
2879.44172	0.89525
2877.38791	0.89367
2875.33410	0.89371
2873.28029	0.89433
2871.22648	0.89394
2869.17267	0.89228
2867.11886	0.89156
2865.06505	0.89505
2863.01124	0.90334
2860.95743	0.91338
2858.90362	0.92159
2856.84981	0.92611
2854.79600	0.92689
2852.74219	0.92520
2850.68838	0.92271
2848.63457	0.92014
2846.58076	0.91671
2844.52695	0.91132
2842.47314	0.90436
2840.41933	0.89811
2838.36552	0.89565
2836.31171	0.89931
2834.25790	0.90887
2832.20409	0.92106
2830.15028	0.93211
2828.09647	0.94035
2826.04266	0.94611
2823.98885	0.95020
2821.93504	0.95314
2819.88123	0.95535
2817.82742	0.95718
2815.77361	0.95874
2813.71980	0.95991
2811.66599	0.96081
2809.61218	0.96164
2807.55837	0.96242
2805.50456	0.96329
2803.45075	0.96441
2801.39693	0.96561
2799.34312	0.96653
2797.28931	0.96710
2795.23550	0.96763
2793.18169	0.96820
2791.12788	0.96865
2789.07407	0.96895
2787.02026	0.96932
2784.96645	0.96997
2782.91264	0.97071
2780.85883	0.97124
2778.80502	0.97157
2776.75121	0.97195
2774.69740	0.97232
2772.64359	0.97261
2770.58978	0.97290
2768.53597	0.97308
2766.48216	0.97330
2764.42835	0.97357
2762.37454	0.97365
2760.32073	0.97367
2758.26692	0.97392
2756.21311	0.97435
2754.15930	0.97452
2752.10549	0.97431
2750.05168	0.97417
2747.99787	0.97423
2745.94406	0.97425
2743.89025	0.97416
2741.83644	0.97400
2739.78263	0.97384
2737.72882	0.97385
2735.67501	0.97393
2733.62120	0.97377
2731.56739	0.97349
2729.51358	0.97326
2727.45977	0.97304
2725.40596	0.97281
2723.35215	0.97263
2721.29834	0.97268
2719.24453	0.97299
2717.19072	0.97353
2715.13691	0.97416
2713.08310	0.97464
2711.02929	0.97489
2708.97548	0.97499
2706.92167	0.97522
2704.86786	0.97550
2702.81405	0.97557
2700.76024	0.97561
2698.70643	0.97580
2696.65262	0.97593
2694.59881	0.97601
2692.54500	0.97617
2690.49119	0.97626
2688.43738	0.97627
2686.38357	0.97631
2684.32976	0.97636
2682.27595	0.97634
2680.22214	0.97627
2678.16833	0.97625
2676.11452	0.97627
2674.06071	0.97624
2672.00690	0.97629
2669.95309	0.97639
2667.89928	0.97625
2665.84547	0.97605
2663.79166	0.97598
2661.73785	0.97582
2659.68404	0.97571
2657.63023	0.97582
2655.57642	0.97598
2653.52261	0.97618
2651.46880	0.97651
2649.41499	0.97686
2647.36118	0.97693
2645.30737	0.97672
2643.25356	0.97651
2641.19975	0.97650
2639.14594	0.97672
2637.09213	0.97687
2635.03832	0.97688
2632.98451	0.97699
2630.93070	0.97727
2628.87689	0.97744
2626.82308	0.97722
2624.76927	0.97693
2622.71546	0.97689
2620.66165	0.97690
2618.60784	0.97690
2616.55403	0.97707
2614.50022	0.97716
2612.44641	0.97724
2610.39260	0.97771
2608.33879	0.97832
2606.28498	0.97853
2604.23117	0.97829
2602.17736	0.97811
2600.12355	0.97829
2598.06974	0.97842
2596.01593	0.97820
2593.96212	0.97807
2591.90831	0.97824
2589.85450	0.97836
2587.80069	0.97847
2585.74688	0.97836
2583.69307	0.97777
2581.63926	0.97757
2579.58545	0.97801
2577.53164	0.97829
2575.47783	0.97843
2573.42402	0.97872
2571.37021	0.97902
2569.31640	0.97918
2567.26259	0.97911
2565.20878	0.97906
2563.15497	0.97905
2561.10116	0.97908
2559.04735	0.97946
2556.99354	0.97959
2554.93973	0.97927
2552.88592	0.97933
2550.83211	0.97959
2548.77830	0.97965
2546.72449	0.97974
2544.67068	0.97988
2542.61687	0.97975
2540.56306	0.97946
2538.50925	0.97938
2536.45544	0.97945
2534.40163	0.97959
2532.34782	0.97974
2530.29401	0.97991
2528.24020	0.98035
2526.18639	0.98091
2524.13258	0.98113
2522.07877	0.98096
2520.02496	0.98043
2517.97115	0.98001
2515.91734	0.98009
2513.86353	0.98011
2511.80972	0.98025
2509.75591	0.98083
2507.70210	0.98089
2505.64828	0.98035
2503.59447	0.98006
2501.54066	0.98023
2499.48685	0.98060
2497.43304	0.98086
2495.37923	0.98092
2493.32542	0.98092
2491.27161	0.98098
2489.21780	0.98111
2487.16399	0.98111
2485.11018	0.98111
2483.05637	0.98127
2481.00256	0.98138
2478.94875	0.98159
2476.89494	0.98184
2474.84113	0.98190
2472.78732	0.98192
2470.73351	0.98162
2468.67970	0.98101
2466.62589	0.98089
2464.57208	0.98125
2462.51827	0.98129
2460.46446	0.98110
2458.41065	0.98124
2456.35684	0.98123
2454.30303	0.98081
2452.24922	0.98073
2450.19541	0.98098
2448.14160	0.98106
2446.08779	0.98118
2444.03398	0.98130
2441.98017	0.98107
2439.92636	0.98107
2437.87255	0.98132
2435.81874	0.98117
2433.76493	0.98086
2431.71112	0.98077
2429.65731	0.98100
2427.60350	0.98145
2425.54969	0.98162
2423.49588	0.98128
2421.44207	0.98084
2419.38826	0.98080
2417.33445	0.98093
2415.28064	0.98077
2413.22683	0.98063
2411.17302	0.98092
2409.11921	0.98114
2407.06540	0.98109
2405.01159	0.98108
2402.95778	0.98109
2400.90397	0.98099
2398.85016	0.98101
2396.79635	0.98131
2394.74254	0.98149
2392.68873	0.98140
2390.63492	0.98128
2388.58111	0.98118
2386.52730	0.98116
2384.47349	0.98127
2382.41968	0.98135
2380.36587	0.98132
2378.31206	0.98103
2376.25825	0.98036
2374.20444	0.97963
2372.15063	0.97970
2370.09682	0.98035
2368.04301	0.98030
2365.98920	0.98014
2363.93539	0.98086
2361.88158	0.98078
2359.82777	0.97967
2357.77396	0.97954
2355.72015	0.98020
2353.66634	0.98069
2351.61253	0.98068
2349.55872	0.98016
2347.50491	0.97979
2345.45110	0.97966
2343.39729	0.97941
2341.34348	0.97903
2339.28967	0.97871
2337.23586	0.97900
2335.18205	0.98008
2333.12824	0.98071
2331.07443	0.98022
2329.02062	0.97929
2326.96681	0.97831
2324.91300	0.97739
2322.85919	0.97697
2320.80538	0.97745
2318.75157	0.97848
2316.69776	0.97938
2314.64395	0.97975
2312.59014	0.97988
2310.53633	0.98015
2308.48252	0.98014
2306.42871	0.97983
2304.37490	0.97984
2302.32109	0.98009
2300.26728	0.98025
2298.21347	0.98045
2296.15966	0.98063
2294.10585	0.98016
2292.05204	0.97909
2289.99823	0.97830
2287.94442	0.97825
2285.89061	0.97894
2283.83680	0.98000
2281.78299	0.98045
2279.72918	0.98012
2277.67537	0.97973
2275.62156	0.97966
2273.56775	0.97994
2271.51394	0.98024
2269.46013	0.98041
2267.40632	0.98078
2265.35251	0.98133
2263.29870	0.98162
2261.24489	0.98121
2259.19108	0.98053
2257.13727	0.98039
2255.08346	0.98051
2253.02965	0.98044
2250.97584	0.98031
2248.92203	0.98048
2246.86822	0.98077
2244.81441	0.98077
2242.76060	0.98091
2240.70679	0.98114
2238.65298	0.98071
2236.59917	0.98040
2234.54536	0.98096
2232.49155	0.98110
2230.43774	0.98030
2228.38393	0.97982
2226.33012	0.98025
2224.27631	0.98122
2222.22250	0.98208
2220.16869	0.98195
2218.11488	0.98086
2216.06107	0.97984
2214.00726	0.97961
2211.95344	0.98009
2209.89963	0.98060
2207.84582	0.98074
2205.79201	0.98139
2203.73820	0.98221
2201.68439	0.98194
2199.63058	0.98079
2197.57677	0.97958
2195.52296	0.97965
2193.46915	0.98090
2191.41534	0.98203
2189.36153	0.98248
2187.30772	0.98186
2185.25391	0.98095
2183.20010	0.98120
2181.14629	0.98252
2179.09248	0.98393
2177.03867	0.98437
2174.98486	0.98299
2172.93105	0.98075
2170.87724	0.97972
2168.82343	0.98017
2166.76962	0.98037
2164.71581	0.97973
2162.66200	0.97953
2160.60819	0.98100
2158.55438	0.98426
2156.50057	0.98697
2154.44676	0.98697
2152.39295	0.98573
2150.33914	0.98510
2148.28533	0.98447
2146.23152	0.98347
2144.17771	0.98257
2142.12390	0.98192
2140.07009	0.98182
2138.01628	0.98239
2135.96247	0.98332
2133.90866	0.98353
2131.85485	0.98225
2129.80104	0.98091
2127.74723	0.98091
2125.69342	0.98152
2123.63961	0.98139
2121.58580	0.98069
2119.53199	0.98065
2117.47818	0.98093
2115.42437	0.98042
2113.37056	0.97993
2111.31675	0.98008
2109.26294	0.98002
2107.20913	0.97985
2105.15532	0.98025
2103.10151	0.98069
2101.04770	0.98050
2098.99389	0.98025
2096.94008	0.98032
2094.88627	0.98034
2092.83246	0.98058
2090.77865	0.98091
2088.72484	0.98053
2086.67103	0.97958
2084.61722	0.97874
2082.56341	0.97869
2080.50960	0.97950
2078.45579	0.98013
2076.40198	0.98034
2074.34817	0.98086
2072.29436	0.98158
2070.24055	0.98157
2068.18674	0.98065
2066.13293	0.97959
2064.07912	0.97914
2062.02531	0.97884
2059.97150	0.97822
2057.91769	0.97855
2055.86388	0.97987
2053.81007	0.98054
2051.75626	0.98023
2049.70245	0.97984
2047.64864	0.98001
2045.59483	0.98044
2043.54102	0.98038
2041.48721	0.98019
2039.43340	0.98034
2037.37959	0.97989
2035.32578	0.97949
2033.27197	0.97992
2031.21816	0.98010
2029.16435	0.98018
2027.11054	0.97985
2025.05673	0.97929
2023.00292	0.97984
2020.94911	0.98086
2018.89530	0.98107
2016.84149	0.98046
2014.78768	0.97985
2012.73387	0.97972
2010.68006	0.97962
2008.62625	0.97908
2006.57244	0.97916
2004.51863	0.98085
2002.46482	0.98242
2000.41101	0.98184
1998.35720	0.97998
1996.30339	0.97897
1994.24958	0.97859
1992.19577	0.97814
1990.14196	0.97870
1988.08815	0.97979
1986.03434	0.98001
1983.98053	0.97983
1981.92672	0.97947
1979.87291	0.97852
1977.81910	0.97763
1975.76529	0.97861
1973.71148	0.98107
1971.65767	0.98193
1969.60386	0.98125
1967.55005	0.98089
1965.49624	0.98044
1963.44243	0.97986
1961.38862	0.98002
1959.33481	0.98055
1957.28100	0.98055
1955.22719	0.98054
1953.17338	0.98103
1951.11957	0.98113
1949.06576	0.98065
1947.01195	0.98024
1944.95814	0.98033
1942.90433	0.98075
1940.85052	0.98082
1938.79671	0.98044
1936.74290	0.97988
1934.68909	0.97912
1932.63528	0.97842
1930.58147	0.97859
1928.52766	0.97932
1926.47385	0.97936
1924.42004	0.97859
1922.36623	0.97819
1920.31242	0.97862
1918.25861	0.97900
1916.20479	0.97872
1914.15098	0.97793
1912.09717	0.97721
1910.04336	0.97682
1907.98955	0.97688
1905.93574	0.97746
1903.88193	0.97782
1901.82812	0.97763
1899.77431	0.97753
1897.72050	0.97775
1895.66669	0.97827
1893.61288	0.97860
1891.55907	0.97799
1889.50526	0.97710
1887.45145	0.97709
1885.39764	0.97747
1883.34383	0.97720
1881.29002	0.97641
1879.23621	0.97593
1877.18240	0.97608
1875.12859	0.97661
1873.07478	0.97711
1871.02097	0.97729
1868.96716	0.97711
1866.91335	0.97668
1864.85954	0.97607
1862.80573	0.97546
1860.75192	0.97519
1858.69811	0.97545
1856.64430	0.97574
1854.59049	0.97573
1852.53668	0.97580
1850.48287	0.97581
1848.42906	0.97527
1846.37525	0.97452
1844.32144	0.97409
1842.26763	0.97404
1840.21382	0.97417
1838.16001	0.97388
1836.10620	0.97318
1834.05239	0.97288
1831.99858	0.97312
1829.94477	0.97352
1827.89096	0.97363
1825.83715	0.97328
1823.78334	0.97290
1821.72953	0.97285
1819.67572	0.97292
1817.62191	0.97290
1815.56810	0.97262
1813.51429	0.97211
1811.46048	0.97158
1809.40667	0.97123
1807.35286	0.97092
1805.29905	0.97062
1803.24524	0.97053
1801.19143	0.97034
1799.13762	0.96972
1797.08381	0.96901
1795.03000	0.96841
1792.97619	0.96766
1790.92238	0.96684
1788.86857	0.96628
1786.81476	0.96585
1784.76095	0.96536
1782.70714	0.96456
1780.65333	0.96331
1778.59952	0.96219
1776.54571	0.96169
1774.49190	0.96134
1772.43809	0.96055
1770.38428	0.95955
1768.33047	0.95864
1766.27666	0.95773
1764.22285	0.95696
1762.16904	0.95634
1760.11523	0.95579
1758.06142	0.95512
1756.00761	0.95410
1753.95380	0.95329
1751.89999	0.95258
1749.84618	0.95125
1747.79237	0.94975
1745.73856	0.94858
1743.68475	0.94757
1741.63094	0.94666
1739.57713	0.94585
1737.52332	0.94554
1735.46951	0.94545
1733.41570	0.94460
1731.36189	0.94368
1729.30808	0.94327
1727.25427	0.94287
1725.20046	0.94209
1723.14665	0.94091
1721.09284	0.94018
1719.03903	0.93955
1716.98522	0.93787
1714.93141	0.93609
1712.87760	0.93518
1710.82379	0.93476
1708.76998	0.93467
1706.71617	0.93487
1704.66236	0.93537
1702.60855	0.93635
1700.55474	0.93760
1698.50093	0.93836
1696.44712	0.93872
1694.39331	0.93908
1692.33950	0.93960
1690.28569	0.94012
1688.23188	0.94063
1686.17807	0.94110
1684.12426	0.94099
1682.07045	0.94078
1680.01664	0.94107
1677.96283	0.94146
1675.90902	0.94136
1673.85521	0.94089
1671.80140	0.94069
1669.74759	0.94017
1667.69378	0.93939
1665.63997	0.93913
1663.58616	0.93881
1661.53235	0.93808
1659.47854	0.93747
1657.42473	0.93715
1655.37092	0.93682
1653.31711	0.93560
1651.26330	0.93456
1649.20949	0.93486
1647.15568	0.93494
1645.10187	0.93441
1643.04806	0.93439
1640.99425	0.93475
1638.94044	0.93521
1636.88663	0.93561
1634.83282	0.93588
1632.77901	0.93651
1630.72520	0.93739
1628.67139	0.93825
1626.61758	0.93927
1624.56377	0.94048
1622.50996	0.94163
1620.45614	0.94270
1618.40233	0.94377
1616.34852	0.94488
1614.29471	0.94603
1612.24090	0.94719
1610.18709	0.94843
1608.13328	0.94973
1606.07947	0.95114
1604.02566	0.95247
1601.97185	0.95344
1599.91804	0.95438
1597.86423	0.95547
1595.81042	0.95645
1593.75661	0.95734
1591.70280	0.95820
1589.64899	0.95893
1587.59518	0.95949
1585.54137	0.95990
1583.48756	0.96034
1581.43375	0.96091
1579.37994	0.96140
1577.32613	0.96159
1575.27232	0.96159
1573.21851	0.96173
1571.16470	0.96185
1569.11089	0.96185
1567.05708	0.96194
1565.00327	0.96207
1562.94946	0.96220
1560.89565	0.96230
1558.84184	0.96171
1556.78803	0.96079
1554.73422	0.96046
1552.68041	0.96036
1550.62660	0.96028
1548.57279	0.96024
1546.51898	0.96036
1544.46517	0.96054
1542.41136	0.96069
1540.35755	0.96066
1538.30374	0.96073
1536.24993	0.96119
1534.19612	0.96151
1532.14231	0.96165
1530.08850	0.96192
1528.03469	0.96226
1525.98088	0.96269
1523.92707	0.96320
1521.87326	0.96338
1519.81945	0.96318
1517.76564	0.96324
1515.71183	0.96352
1513.65802	0.96385
1511.60421	0.96427
1509.55040	0.96469
1507.49659	0.96484
1505.44278	0.96480
1503.38897	0.96510
1501.33516	0.96547
1499.28135	0.96571
1497.22754	0.96573
1495.17373	0.96560
1493.11992	0.96556
1491.06611	0.96558
1489.01230	0.96514
1486.95849	0.96406
1484.90468	0.96313
1482.85087	0.96245
1480.79706	0.96137
1478.74325	0.95944
1476.68944	0.95640
1474.63563	0.95154
1472.58182	0.94334
1470.52801	0.93373
1468.47420	0.92529
1466.42039	0.91577
1464.36658	0.90467
1462.31277	0.89695
1460.25896	0.89346
1458.20515	0.89058
1456.15134	0.88734
1454.09753	0.88660
1452.04372	0.88791
1449.98991	0.89153
1447.93610	0.89936
1445.88229	0.91028
1443.82848	0.92023
1441.77467	0.92745
1439.72086	0.93147
1437.66705	0.93278
1435.61324	0.93392
1433.55943	0.93771
1431.50562	0.94301
1429.45181	0.94762
1427.39800	0.95036
1425.34419	0.95169
1423.29038	0.95220
1421.23657	0.95258
1419.18276	0.95298
1417.12895	0.95290
1415.07514	0.95268
1413.02133	0.95265
1410.96752	0.95271
1408.91371	0.95283
1406.85990	0.95300
1404.80609	0.95299
1402.75228	0.95292
1400.69847	0.95292
1398.64466	0.95284
1396.59085	0.95257
1394.53704	0.95173
1392.48323	0.95026
1390.42942	0.94836
1388.37561	0.94520
1386.32180	0.93942
1384.26799	0.93001
1382.21418	0.91512
1380.16037	0.89260
1378.10656	0.86623
1376.05275	0.85036
1373.99894	0.85792
1371.94513	0.88136
1369.89132	0.90349
1367.83751	0.91815
1365.78370	0.92524
1363.72989	0.92680
1361.67608	0.92498
1359.62227	0.92304
1357.56846	0.92376
1355.51465	0.92746
1353.46084	0.93232
1351.40703	0.93641
1349.35322	0.93927
1347.29941	0.94114
1345.24560	0.94242
1343.19179	0.94354
1341.13798	0.94445
1339.08417	0.94476
1337.03036	0.94463
1334.97655	0.94447
1332.92274	0.94419
1330.86893	0.94371
1328.81512	0.94349
1326.76130	0.94390
1324.70749	0.94468
1322.65368	0.94532
1320.59987	0.94543
1318.54606	0.94522
1316.49225	0.94511
1314.43844	0.94508
1312.38463	0.94487
1310.33082	0.94428
1308.27701	0.94306
1306.22320	0.94130
1304.16939	0.93988
1302.11558	0.93964
1300.06177	0.94001
1298.00796	0.94005
1295.95415	0.93988
1293.90034	0.94006
1291.84653	0.94048
1289.79272	0.94070
1287.73891	0.94061
1285.68510	0.94034
1283.63129	0.94000
1281.57748	0.93963
1279.52367	0.93923
1277.46986	0.93872
1275.41605	0.93811
1273.36224	0.93765
1271.30843	0.93728
1269.25462	0.93673
1267.20081	0.93591
1265.14700	0.93489
1263.09319	0.93373
1261.03938	0.93238
1258.98557	0.93056
1256.93176	0.92862
1254.87795	0.92738
1252.82414	0.92701
1250.77033	0.92687
1248.71652	0.92641
1246.66271	0.92552
1244.60890	0.92432
1242.55509	0.92298
1240.50128	0.92158
1238.44747	0.92022
1236.39366	0.91901
1234.33985	0.91783
1232.28604	0.91650
1230.23223	0.91504
1228.17842	0.91359
1226.12461	0.91223
1224.07080	0.91093
1222.01699	0.90965
1219.96318	0.90837
1217.90937	0.90712
1215.85556	0.90599
1213.80175	0.90525
1211.74794	0.90478
1209.69413	0.90416
1207.64032	0.90336
1205.58651	0.90254
1203.53270	0.90184
1201.47889	0.90137
1199.42508	0.90084
1197.37127	0.90019
1195.31746	0.89962
1193.26365	0.89923
1191.20984	0.89889
1189.15603	0.89842
1187.10222	0.89790
1185.04841	0.89737
1182.99460	0.89679
1180.94079	0.89619
1178.88698	0.89545
1176.83317	0.89424
1174.77936	0.89201
1172.72555	0.88823
1170.67174	0.88333
1168.61793	0.87924
1166.56412	0.87792
1164.51031	0.87947
1162.45650	0.88236
1160.40269	0.88515
1158.34888	0.88726
1156.29507	0.88884
1154.24126	0.89020
1152.18745	0.89131
1150.13364	0.89245
1148.07983	0.89394
1146.02602	0.89543
1143.97221	0.89672
1141.91840	0.89783
1139.86459	0.89859
1137.81078	0.89899
1135.75697	0.89933
1133.70316	0.89957
1131.64935	0.89951
1129.59554	0.89929
1127.54173	0.89914
1125.48792	0.89911
1123.43411	0.89891
1121.38030	0.89840
1119.32649	0.89780
1117.27268	0.89727
1115.21887	0.89686
1113.16506	0.89669
1111.11125	0.89660
1109.05744	0.89599
1107.00363	0.89451
1104.94982	0.89289
1102.89601	0.89195
1100.84220	0.89167
1098.78839	0.89189
1096.73458	0.89249
1094.68077	0.89307
1092.62696	0.89333
1090.57315	0.89341
1088.51934	0.89356
1086.46553	0.89374
1084.41172	0.89401
1082.35791	0.89453
1080.30410	0.89503
1078.25029	0.89521
1076.19648	0.89515
1074.14267	0.89497
1072.08886	0.89480
1070.03505	0.89466
1067.98124	0.89428
1065.92743	0.89358
1063.87362	0.89236
1061.81981	0.89042
1059.76600	0.88829
1057.71219	0.88630
1055.65838	0.88442
1053.60457	0.88276
1051.55076	0.88136
1049.49695	0.88014
1047.44314	0.87916
1045.38933	0.87859
1043.33552	0.87862
1041.28171	0.87918
1039.22790	0.87994
1037.17409	0.88086
1035.12028	0.88218
1033.06647	0.88391
1031.01265	0.88594
1028.95884	0.88813
1026.90503	0.89022
1024.85122	0.89231
1022.79741	0.89450
1020.74360	0.89659
1018.68979	0.89836
1016.63598	0.89973
1014.58217	0.90097
1012.52836	0.90229
1010.47455	0.90350
1008.42074	0.90437
1006.36693	0.90451
1004.31312	0.90318
1002.25931	0.89951
1000.20550	0.89384
998.15169	0.88958
996.09788	0.89068
994.04407	0.89656
991.99026	0.90314
989.93645	0.90775
987.88264	0.91028
985.82883	0.91166
983.77502	0.91241
981.72121	0.91221
979.66740	0.91021
977.61359	0.90585
975.55978	0.89967
973.50597	0.89472
971.45216	0.89513
969.39835	0.90098
967.34454	0.90805
965.29073	0.91329
963.23692	0.91662
961.18311	0.91870
959.12930	0.91985
957.07549	0.92053
955.02168	0.92106
952.96787	0.92128
950.91406	0.92129
948.86025	0.92138
946.80644	0.92159
944.75263	0.92178
942.69882	0.92168
940.64501	0.92148
938.59120	0.92172
936.53739	0.92234
934.48358	0.92296
932.42977	0.92363
930.37596	0.92431
928.32215	0.92457
926.26834	0.92439
924.21453	0.92429
922.16072	0.92435
920.10691	0.92418
918.05310	0.92377
915.99929	0.92332
913.94548	0.92291
911.89167	0.92270
909.83786	0.92261
907.78405	0.92213
905.73024	0.92084
903.67643	0.91877
901.62262	0.91652
899.56881	0.91510
897.51500	0.91537
895.46119	0.91713
893.40738	0.91912
891.35357	0.92051
889.29976	0.92123
887.24595	0.92134
885.19214	0.92146
883.13833	0.92224
881.08452	0.92330
879.03071	0.92382
876.97690	0.92381
874.92309	0.92411
872.86928	0.92490
870.81547	0.92555
868.76166	0.92583
866.70785	0.92623
864.65404	0.92669
862.60023	0.92694
860.54642	0.92747
858.49261	0.92799
856.43880	0.92798
854.38499	0.92792
852.33118	0.92790
850.27737	0.92725
848.22356	0.92573
846.16975	0.92244
844.11594	0.91542
842.06213	0.90695
840.00832	0.90483
837.95451	0.91071
835.90070	0.91762
833.84689	0.92141
831.79308	0.92312
829.73927	0.92427
827.68546	0.92503
825.63165	0.92509
823.57784	0.92514
821.52403	0.92570
819.47022	0.92606
817.41641	0.92547
815.36260	0.92353
813.30879	0.92001
811.25498	0.91636
809.20117	0.91441
807.14736	0.91442
805.09355	0.91604
803.03974	0.91832
800.98593	0.91994
798.93212	0.92034
796.87831	0.92033
794.82450	0.92094
792.77069	0.92165
790.71688	0.92185
788.66307	0.92195
786.60926	0.92191
784.55545	0.92159
782.50164	0.92130
780.44783	0.92120
778.39402	0.92121
776.34021	0.92133
774.28640	0.92125
772.23259	0.92074
770.17878	0.92004
768.12497	0.91937
766.07116	0.91905
764.01735	0.91915
761.96354	0.91922
759.90973	0.91907
757.85592	0.91858
755.80211	0.91800
753.74830	0.91793
751.69449	0.91807
749.64068	0.91795
747.58687	0.91787
745.53306	0.91771
743.47925	0.91687
741.42544	0.91560
739.37163	0.91496
737.31781	0.91543
735.26400	0.91621
733.21019	0.91604
731.15638	0.91497
729.10257	0.91389
727.04876	0.91321
724.99495	0.91299
722.94114	0.91268
720.88733	0.91180
718.83352	0.91103
716.77971	0.91059
714.72590	0.91008
712.67209	0.91029
710.61828	0.91138
708.56447	0.91165
706.51066	0.91063
704.45685	0.90955
702.40304	0.90868
700.34923	0.90776
698.29542	0.90674
696.24161	0.90570
694.18780	0.90551
692.13399	0.90592
690.08018	0.90570
688.02637	0.90501
685.97256	0.90480
683.91875	0.90516
681.86494	0.90508
679.81113	0.90448
677.75732	0.90411
675.70351	0.90388
673.64970	0.90370
671.59589	0.90338
669.54208	0.90227
667.48827	0.90059
665.43446	0.90006
663.38065	0.90034
661.32684	0.90049
659.27303	0.89936
657.21922	0.89753
655.16541	0.89715
653.11160	0.89738
651.05779	0.89632
649.00398	0.89518
646.95017	0.89529
644.89636	0.89518
642.84255	0.89395
640.78874	0.89280
638.73493	0.89220
636.68112	0.89175
634.62731	0.89107
632.57350	0.88975
630.51969	0.88824
628.46588	0.88756
626.41207	0.88714
624.35826	0.88617
622.30445	0.88539
620.25064	0.88484
618.19683	0.88382
616.14302	0.88235
614.08921	0.88148
612.03540	0.88124
609.98159	0.88042
607.92778	0.87904
605.87397	0.87760
603.82016	0.87618
601.76635	0.87527
599.71254	0.87457
597.65873	0.87364
595.60492	0.87278
593.55111	0.87202
591.49730	0.87153
589.44349	0.87122
587.38968	0.87089
585.33587	0.87171
583.28206	0.87314
581.22825	0.87334
579.17444	0.87295
577.12063	0.87348
575.06682	0.87540
573.01301	0.87766
570.95920	0.87875
568.90539	0.87854
566.85158	0.87759
564.79777	0.87664
562.74396	0.87668
560.69015	0.87735
558.63634	0.87787
556.58253	0.87853
554.52872	0.87916
552.47491	0.87935
550.42110	0.87924
548.36729	0.87920
546.31348	0.87979
544.25967	0.88016
542.20586	0.87878
540.15205	0.87642
538.09824	0.87535
536.04443	0.87564
533.99062	0.87568
531.93681	0.87583
529.88300	0.87706
527.82919	0.87815
525.77538	0.87794
523.72157	0.87744
521.66776	0.87717
519.61395	0.87731
517.56014	0.87833
515.50633	0.87932
513.45252	0.87998
511.39871	0.88069
509.34490	0.88046
507.29109	0.87943
505.23728	0.87946
503.18347	0.88067
501.12966	0.88202
499.07585	0.88304
497.02204	0.88296
494.96823	0.88154
492.91442	0.88029
490.86061	0.87988
488.80680	0.87953
486.75299	0.87890
484.69918	0.87705
482.64537	0.87418
480.59156	0.87202
478.53775	0.87076
476.48394	0.86961
474.43013	0.86918
472.37632	0.86991
470.32251	0.86981
468.26870	0.86893
466.21489	0.86913
464.16108	0.86885
462.10727	0.86655
460.05346	0.86442
457.99965	0.86495
455.94584	0.86765
453.89203	0.86928
451.83822	0.86987
449.78441	0.87151
447.73060	0.87274
445.67679	0.87314
443.62298	0.87354
441.56916	0.87299
439.51535	0.87473
437.46154	0.87986
435.40773	0.88190
433.35392	0.87914
431.30011	0.87659
429.24630	0.87362
427.19249	0.86886
425.13868	0.86882
423.08487	0.87586
421.03106	0.88244
418.97725	0.88341
416.92344	0.87987
414.86963	0.87772
412.81582	0.87913
410.76201	0.88118
408.70820	0.88060
406.65439	0.87890
404.60058	0.87904
402.54677	0.88144
400.49296	0.88283
398.43915	0.88036
