3996.70104	0.98738
3994.64724	0.98719
3992.59344	0.98697
3990.53964	0.98697
3988.48583	0.98706
3986.43203	0.98725
3984.37823	0.98733
3982.32442	0.98731
3980.27062	0.98763
3978.21682	0.98817
3976.16301	0.98848
3974.10921	0.98832
3972.05541	0.98775
3970.00160	0.98733
3967.94780	0.98716
3965.89400	0.98692
3963.84019	0.98680
3961.78639	0.98717
3959.73259	0.98763
3957.67878	0.98766
3955.62498	0.98772
3953.57118	0.98793
3951.51737	0.98781
3949.46357	0.98742
3947.40977	0.98751
3945.35596	0.98801
3943.30216	0.98822
3941.24836	0.98857
3939.19455	0.98922
3937.14075	0.98922
3935.08695	0.98845
3933.03315	0.98775
3930.97934	0.98742
3928.92554	0.98741
3926.87174	0.98768
3924.81793	0.98791
3922.76413	0.98767
3920.71033	0.98729
3918.65652	0.98740
3916.60272	0.98777
3914.54892	0.98816
3912.49511	0.98851
3910.44131	0.98836
3908.38751	0.98761
3906.33370	0.98697
3904.27990	0.98719
3902.22610	0.98774
3900.17229	0.98791
3898.11849	0.98813
3896.06469	0.98815
3894.01088	0.98776
3891.95708	0.98747
3889.90328	0.98763
3887.84947	0.98803
3885.79567	0.98848
3883.74187	0.98859
3881.68807	0.98841
3879.63426	0.98841
3877.58046	0.98853
3875.52666	0.98861
3873.47285	0.98859
3871.41905	0.98808
3869.36525	0.98752
3867.31144	0.98758
3865.25764	0.98758
3863.20384	0.98762
3861.15003	0.98820
3859.09623	0.98859
3857.04243	0.98836
3854.98862	0.98772
3852.93482	0.98760
3850.88102	0.98819
3848.82721	0.98852
3846.77341	0.98853
3844.71961	0.98806
3842.66580	0.98740
3840.61200	0.98752
3838.55820	0.98813
3836.50439	0.98809
3834.45059	0.98791
3832.39679	0.98817
3830.34298	0.98823
3828.28918	0.98789
3826.23538	0.98769
3824.18158	0.98793
3822.12777	0.98837
3820.07397	0.98850
3818.02017	0.98830
3815.96636	0.98797
3813.91256	0.98750
3811.85876	0.98737
3809.80495	0.98758
3807.75115	0.98753
3805.69735	0.98747
3803.64354	0.98774
3801.58974	0.98804
3799.53594	0.98817
3797.48213	0.98789
3795.42833	0.98734
3793.37453	0.98727
3791.32072	0.98776
3789.26692	0.98823
3787.21312	0.98846
3785.15931	0.98839
3783.10551	0.98799
3781.05171	0.98773
3778.99790	0.98779
3776.94410	0.98770
3774.89030	0.98745
3772.83650	0.98759
3770.78269	0.98788
3768.72889	0.98743
3766.67509	0.98684
3764.62128	0.98702
3762.56748	0.98745
3760.51368	0.98774
3758.45987	0.98807
3756.40607	0.98863
3754.35227	0.98925
3752.29846	0.98918
3750.24466	0.98802
3748.19086	0.98702
3746.13705	0.98627
3744.08325	0.98575
3742.02945	0.98593
3739.97564	0.98620
3737.92184	0.98649
3735.86804	0.98675
3733.81423	0.98648
3731.76043	0.98603
3729.70663	0.98608
3727.65282	0.98603
3725.59902	0.98514
3723.54522	0.98376
3721.49141	0.98325
3719.43761	0.98341
3717.38381	0.98230
3715.33001	0.97995
3713.27620	0.97772
3711.22240	0.97503
3709.16860	0.97109
3707.11479	0.96778
3705.06099	0.96559
3703.00719	0.96319
3700.95338	0.95988
3698.89958	0.95769
3696.84578	0.95719
3694.79197	0.95711
3692.73817	0.95812
3690.68437	0.96030
3688.63056	0.96214
3686.57676	0.96383
3684.52296	0.96546
3682.46915	0.96656
3680.41535	0.96684
3678.36155	0.96645
3676.30774	0.96559
3674.25394	0.96454
3672.20014	0.96429
3670.14633	0.96404
3668.09253	0.96333
3666.03873	0.96277
3663.98492	0.96204
3661.93112	0.96109
3659.87732	0.96027
3657.82352	0.95935
3655.76971	0.95838
3653.71591	0.95816
3651.66211	0.95820
3649.60830	0.95652
3647.55450	0.95375
3645.50070	0.95346
3643.44689	0.95419
3641.39309	0.95414
3639.33929	0.95335
3637.28548	0.95251
3635.23168	0.95145
3633.17788	0.94985
3631.12407	0.94794
3629.07027	0.94553
3627.01647	0.94388
3624.96266	0.94361
3622.90886	0.94337
3620.85506	0.94297
3618.80125	0.94322
3616.74745	0.94479
3614.69365	0.94640
3612.63984	0.94663
3610.58604	0.94579
3608.53224	0.94531
3606.47844	0.94570
3604.42463	0.94608
3602.37083	0.94586
3600.31703	0.94529
3598.26322	0.94463
3596.20942	0.94382
3594.15562	0.94355
3592.10181	0.94402
3590.04801	0.94462
3587.99421	0.94463
3585.94040	0.94375
3583.88660	0.94331
3581.83280	0.94346
3579.77899	0.94310
3577.72519	0.94189
3575.67139	0.94089
3573.61758	0.94057
3571.56378	0.94029
3569.50998	0.93954
3567.45617	0.93772
3565.40237	0.93589
3563.34857	0.93537
3561.29476	0.93529
3559.24096	0.93481
3557.18716	0.93378
3555.13335	0.93285
3553.07955	0.93222
3551.02575	0.93160
3548.97195	0.93080
3546.91814	0.92973
3544.86434	0.92896
3542.81054	0.92867
3540.75673	0.92824
3538.70293	0.92780
3536.64913	0.92772
3534.59532	0.92746
3532.54152	0.92688
3530.48772	0.92655
3528.43391	0.92630
3526.38011	0.92595
3524.32631	0.92605
3522.27250	0.92634
3520.21870	0.92637
3518.16490	0.92639
3516.11109	0.92629
3514.05729	0.92611
3512.00349	0.92618
3509.94968	0.92628
3507.89588	0.92629
3505.84208	0.92652
3503.78827	0.92671
3501.73447	0.92644
3499.68067	0.92571
3497.62687	0.92487
3495.57306	0.92403
3493.51926	0.92356
3491.46546	0.92393
3489.41165	0.92457
3487.35785	0.92471
3485.30405	0.92429
3483.25024	0.92354
3481.19644	0.92303
3479.14264	0.92311
3477.08883	0.92318
3475.03503	0.92261
3472.98123	0.92161
3470.92742	0.92106
3468.87362	0.92106
3466.81982	0.92099
3464.76601	0.92062
3462.71221	0.92009
3460.65841	0.91954
3458.60460	0.91927
3456.55080	0.91942
3454.49700	0.91936
3452.44319	0.91869
3450.38939	0.91803
3448.33559	0.91762
3446.28178	0.91675
3444.22798	0.91582
3442.17418	0.91532
3440.12038	0.91483
3438.06657	0.91421
3436.01277	0.91346
3433.95897	0.91267
3431.90516	0.91178
3429.85136	0.91086
3427.79756	0.91025
3425.74375	0.90984
3423.68995	0.90928
3421.63615	0.90853
3419.58234	0.90774
3417.52854	0.90693
3415.47474	0.90630
3413.42093	0.90586
3411.36713	0.90529
3409.31333	0.90459
3407.25952	0.90389
3405.20572	0.90330
3403.15192	0.90294
3401.09811	0.90284
3399.04431	0.90274
3396.99051	0.90237
3394.93670	0.90199
3392.88290	0.90215
3390.82910	0.90292
3388.77529	0.90380
3386.72149	0.90418
3384.66769	0.90421
3382.61389	0.90436
3380.56008	0.90437
3378.50628	0.90413
3376.45248	0.90439
3374.39867	0.90503
3372.34487	0.90524
3370.29107	0.90495
3368.23726	0.90491
3366.18346	0.90538
3364.12966	0.90567
3362.07585	0.90578
3360.02205	0.90598
3357.96825	0.90610
3355.91444	0.90648
3353.86064	0.90718
3351.80684	0.90763
3349.75303	0.90796
3347.69923	0.90845
3345.64543	0.90887
3343.59162	0.90912
3341.53782	0.90938
3339.48402	0.90978
3337.43021	0.91026
3335.37641	0.91064
3333.32261	0.91065
3331.26881	0.91048
3329.21500	0.91072
3327.16120	0.91123
3325.10740	0.91167
3323.05359	0.91209
3320.99979	0.91248
3318.94599	0.91269
3316.89218	0.91266
3314.83838	0.91281
3312.78458	0.91347
3310.73077	0.91410
3308.67697	0.91402
3306.62317	0.91378
3304.56936	0.91425
3302.51556	0.91492
3300.46176	0.91499
3298.40795	0.91516
3296.35415	0.91602
3294.30035	0.91667
3292.24654	0.91660
3290.19274	0.91630
3288.13894	0.91625
3286.08513	0.91645
3284.03133	0.91702
3281.97753	0.91785
3279.92372	0.91828
3277.86992	0.91805
3275.81612	0.91743
3273.76232	0.91708
3271.70851	0.91739
3269.65471	0.91808
3267.60091	0.91872
3265.54710	0.91922
3263.49330	0.91958
3261.43950	0.92000
3259.38569	0.92056
3257.33189	0.92099
3255.27809	0.92110
3253.22428	0.92117
3251.17048	0.92150
3249.11668	0.92211
3247.06287	0.92297
3245.00907	0.92380
3242.95527	0.92439
3240.90146	0.92475
3238.84766	0.92481
3236.79386	0.92474
3234.74005	0.92484
3232.68625	0.92514
3230.63245	0.92540
3228.57864	0.92568
3226.52484	0.92621
3224.47104	0.92688
3222.41724	0.92745
3220.36343	0.92782
3218.30963	0.92810
3216.25583	0.92826
3214.20202	0.92840
3212.14822	0.92890
3210.09442	0.92983
3208.04061	0.93098
3205.98681	0.93182
3203.93301	0.93232
3201.87920	0.93300
3199.82540	0.93353
3197.77160	0.93333
3195.71779	0.93328
3193.66399	0.93404
3191.61019	0.93476
3189.55638	0.93526
3187.50258	0.93606
3185.44878	0.93661
3183.39497	0.93649
3181.34117	0.93641
3179.28737	0.93692
3177.23356	0.93757
3175.17976	0.93798
3173.12596	0.93873
3171.07215	0.93975
3169.01835	0.94030
3166.96455	0.94042
3164.91075	0.94077
3162.85694	0.94150
3160.80314	0.94243
3158.74934	0.94334
3156.69553	0.94407
3154.64173	0.94476
3152.58793	0.94542
3150.53412	0.94579
3148.48032	0.94602
3146.42652	0.94643
3144.37271	0.94681
3142.31891	0.94719
3140.26511	0.94764
3138.21130	0.94782
3136.15750	0.94795
3134.10370	0.94854
3132.04989	0.94923
3129.99609	0.94962
3127.94229	0.95011
3125.88848	0.95110
3123.83468	0.95208
3121.78088	0.95233
3119.72707	0.95218
3117.67327	0.95242
3115.61947	0.95308
3113.56566	0.95384
3111.51186	0.95421
3109.45806	0.95422
3107.40426	0.95462
3105.35045	0.95528
3103.29665	0.95535
3101.24285	0.95512
3099.18904	0.95542
3097.13524	0.95613
3095.08144	0.95664
3093.02763	0.95690
3090.97383	0.95745
3088.92003	0.95828
3086.86622	0.95889
3084.81242	0.95926
3082.75862	0.95948
3080.70481	0.95948
3078.65101	0.95956
3076.59721	0.95993
3074.54340	0.96038
3072.48960	0.96103
3070.43580	0.96176
3068.38199	0.96174
3066.32819	0.96126
3064.27439	0.96135
3062.22058	0.96222
3060.16678	0.96327
3058.11298	0.96346
3056.05918	0.96292
3054.00537	0.96272
3051.95157	0.96301
3049.89777	0.96349
3047.84396	0.96396
3045.79016	0.96424
3043.73636	0.96455
3041.68255	0.96508
3039.62875	0.96557
3037.57495	0.96570
3035.52114	0.96559
3033.46734	0.96569
3031.41354	0.96624
3029.35973	0.96677
3027.30593	0.96684
3025.25213	0.96658
3023.19832	0.96642
3021.14452	0.96669
3019.09072	0.96713
3017.03691	0.96746
3014.98311	0.96753
3012.92931	0.96746
3010.87550	0.96758
3008.82170	0.96747
3006.76790	0.96685
3004.71409	0.96625
3002.66029	0.96588
3000.60649	0.96550
2998.55269	0.96494
2996.49888	0.96414
2994.44508	0.96326
2992.39128	0.96258
2990.33747	0.96168
2988.28367	0.95991
2986.22987	0.95745
2984.17606	0.95487
2982.12226	0.95213
2980.06846	0.94845
2978.01465	0.94356
2975.96085	0.93742
2973.90705	0.92944
2971.85324	0.91926
2969.79944	0.90678
2967.74564	0.89203
2965.69183	0.87554
2963.63803	0.85849
2961.58423	0.84295
2959.53042	0.83083
2957.47662	0.82216
2955.42282	0.81536
2953.36901	0.80956
2951.31521	0.80595
2949.26141	0.80739
2947.20761	0.81712
2945.15380	0.83445
2943.10000	0.85353
2941.04620	0.86796
2938.99239	0.87443
2936.93859	0.87285
2934.88479	0.86514
2932.83098	0.85353
2930.77718	0.83927
2928.72338	0.82384
2926.66957	0.80917
2924.61577	0.79625
2922.56197	0.78511
2920.50816	0.77550
2918.45436	0.76867
2916.40056	0.76744
2914.34675	0.77293
2912.29295	0.78292
2910.23915	0.79402
2908.18534	0.80463
2906.13154	0.81506
2904.07774	0.82568
2902.02393	0.83637
2899.97013	0.84678
2897.91633	0.85648
2895.86252	0.86553
2893.80872	0.87321
2891.75492	0.87832
2889.70112	0.88094
2887.64731	0.88164
2885.59351	0.88063
2883.53971	0.87809
2881.48590	0.87410
2879.43210	0.86936
2877.37830	0.86592
2875.32449	0.86524
2873.27069	0.86598
2871.21689	0.86577
2869.16308	0.86458
2867.10928	0.86546
2865.05548	0.87218
2863.00167	0.88518
2860.94787	0.90022
2858.89407	0.91227
2856.84026	0.91910
2854.78646	0.92109
2852.73266	0.91993
2850.67885	0.91764
2848.62505	0.91482
2846.57125	0.90976
2844.51744	0.90075
2842.46364	0.88901
2840.40984	0.87793
2838.35603	0.87104
2836.30223	0.87230
2834.24843	0.88363
2832.19463	0.90132
2830.14082	0.91900
2828.08702	0.93283
2826.03322	0.94219
2823.97941	0.94814
2821.92561	0.95232
2819.87181	0.95566
2817.81800	0.95815
2815.76420	0.95972
2813.71040	0.96080
2811.65659	0.96190
2809.60279	0.96320
2807.54899	0.96478
2805.49518	0.96644
2803.44138	0.96769
2801.38758	0.96865
2799.33377	0.96966
2797.27997	0.97055
2795.22617	0.97110
2793.17236	0.97140
2791.11856	0.97175
2789.06476	0.97269
2787.01095	0.97395
2784.95715	0.97476
2782.90335	0.97519
2780.84955	0.97564
2778.79574	0.97606
2776.74194	0.97627
2774.68814	0.97659
2772.63433	0.97729
2770.58053	0.97796
2768.52673	0.97811
2766.47292	0.97779
2764.41912	0.97769
2762.36532	0.97822
2760.31151	0.97876
2758.25771	0.97883
2756.20391	0.97893
2754.15010	0.97927
2752.09630	0.97934
2750.04250	0.97930
2747.98869	0.97947
2745.93489	0.97943
2743.88109	0.97901
2741.82728	0.97850
2739.77348	0.97845
2737.71968	0.97883
2735.66587	0.97881
2733.61207	0.97837
2731.55827	0.97817
2729.50446	0.97789
2727.45066	0.97710
2725.39686	0.97622
2723.34306	0.97587
2721.28925	0.97632
2719.23545	0.97702
2717.18165	0.97737
2715.12784	0.97787
2713.07404	0.97868
2711.02024	0.97924
2708.96643	0.97958
2706.91263	0.98006
2704.85883	0.98054
2702.80502	0.98079
2700.75122	0.98091
2698.69742	0.98098
2696.64361	0.98108
2694.58981	0.98129
2692.53601	0.98141
2690.48220	0.98127
2688.42840	0.98104
2686.37460	0.98096
2684.32079	0.98096
2682.26699	0.98103
2680.21319	0.98122
2678.15938	0.98126
2676.10558	0.98118
2674.05178	0.98122
2671.99797	0.98151
2669.94417	0.98213
2667.89037	0.98249
2665.83657	0.98210
2663.78276	0.98135
2661.72896	0.98085
2659.67516	0.98100
2657.62135	0.98158
2655.56755	0.98192
2653.51375	0.98209
2651.45994	0.98249
2649.40614	0.98273
2647.35234	0.98264
2645.29853	0.98266
2643.24473	0.98267
2641.19093	0.98256
2639.13712	0.98259
2637.08332	0.98277
2635.02952	0.98306
2632.97571	0.98311
2630.92191	0.98285
2628.86811	0.98267
2626.81430	0.98270
2624.76050	0.98268
2622.70670	0.98252
2620.65289	0.98261
2618.59909	0.98286
2616.54529	0.98280
2614.49149	0.98276
2612.43768	0.98306
2610.38388	0.98320
2608.33008	0.98314
2606.27627	0.98309
2604.22247	0.98321
2602.16867	0.98392
2600.11486	0.98433
2598.06106	0.98377
2596.00726	0.98323
2593.95345	0.98332
2591.89965	0.98372
2589.84585	0.98410
2587.79204	0.98444
2585.73824	0.98464
2583.68444	0.98446
2581.63063	0.98401
2579.57683	0.98383
2577.52303	0.98436
2575.46922	0.98494
2573.41542	0.98487
2571.36162	0.98451
2569.30781	0.98434
2567.25401	0.98465
2565.20021	0.98511
2563.14640	0.98535
2561.09260	0.98558
2559.03880	0.98544
2556.98500	0.98482
2554.93119	0.98475
2552.87739	0.98544
2550.82359	0.98572
2548.76978	0.98551
2546.71598	0.98592
2544.66218	0.98649
2542.60837	0.98612
2540.55457	0.98547
2538.50077	0.98545
2536.44696	0.98555
2534.39316	0.98557
2532.33936	0.98611
2530.28555	0.98700
2528.23175	0.98737
2526.17795	0.98696
2524.12414	0.98664
2522.07034	0.98699
2520.01654	0.98751
2517.96273	0.98763
2515.90893	0.98736
2513.85513	0.98700
2511.80132	0.98662
2509.74752	0.98634
2507.69372	0.98641
2505.63992	0.98647
2503.58611	0.98615
2501.53231	0.98592
2499.47851	0.98617
2497.42470	0.98640
2495.37090	0.98638
2493.31710	0.98654
2491.26329	0.98701
2489.20949	0.98771
2487.15569	0.98824
2485.10188	0.98800
2483.04808	0.98763
2480.99428	0.98812
2478.94047	0.98927
2476.88667	0.98996
2474.83287	0.98961
2472.77906	0.98860
2470.72526	0.98780
2468.67146	0.98768
2466.61765	0.98745
2464.56385	0.98701
2462.51005	0.98706
2460.45624	0.98748
2458.40244	0.98803
2456.34864	0.98867
2454.29483	0.98868
2452.24103	0.98798
2450.18723	0.98765
2448.13343	0.98766
2446.07962	0.98762
2444.02582	0.98782
2441.97202	0.98806
2439.91821	0.98814
2437.86441	0.98792
2435.81061	0.98756
2433.75680	0.98766
2431.70300	0.98797
2429.64920	0.98786
2427.59539	0.98735
2425.54159	0.98695
2423.48779	0.98723
2421.43398	0.98795
2419.38018	0.98839
2417.32638	0.98846
2415.27257	0.98823
2413.21877	0.98773
2411.16497	0.98733
2409.11116	0.98744
2407.05736	0.98791
2405.00356	0.98803
2402.94975	0.98770
2400.89595	0.98776
2398.84215	0.98793
2396.78834	0.98755
2394.73454	0.98734
2392.68074	0.98751
2390.62694	0.98758
2388.57313	0.98751
2386.51933	0.98767
2384.46553	0.98793
2382.41172	0.98771
2380.35792	0.98719
2378.30412	0.98678
2376.25031	0.98656
2374.19651	0.98633
2372.14271	0.98555
2370.08890	0.98466
2368.03510	0.98478
2365.98130	0.98571
2363.92749	0.98625
2361.87369	0.98590
2359.81989	0.98557
2357.76608	0.98583
2355.71228	0.98628
2353.65848	0.98665
2351.60467	0.98706
2349.55087	0.98742
2347.49707	0.98734
2345.44326	0.98697
2343.38946	0.98673
2341.33566	0.98685
2339.28186	0.98738
2337.22805	0.98786
2335.17425	0.98784
2333.12045	0.98706
2331.06664	0.98591
2329.01284	0.98535
2326.95904	0.98545
2324.90523	0.98517
2322.85143	0.98444
2320.79763	0.98447
2318.74382	0.98549
2316.69002	0.98632
2314.63622	0.98639
2312.58241	0.98636
2310.52861	0.98657
2308.47481	0.98666
2306.42100	0.98681
2304.36720	0.98698
2302.31340	0.98651
2300.25959	0.98561
2298.20579	0.98559
2296.15199	0.98656
2294.09818	0.98721
2292.04438	0.98711
2289.99058	0.98684
2287.93677	0.98693
2285.88297	0.98725
2283.82917	0.98688
2281.77537	0.98616
2279.72156	0.98649
2277.66776	0.98750
2275.61396	0.98766
2273.56015	0.98699
2271.50635	0.98709
2269.45255	0.98816
2267.39874	0.98853
2265.34494	0.98787
2263.29114	0.98718
2261.23733	0.98660
2259.18353	0.98621
2257.12973	0.98686
2255.07592	0.98800
2253.02212	0.98805
2250.96832	0.98710
2248.91451	0.98603
2246.86071	0.98608
2244.80691	0.98758
2242.75310	0.98881
2240.69930	0.98891
2238.64550	0.98863
2236.59169	0.98845
2234.53789	0.98808
2232.48409	0.98767
2230.43029	0.98818
2228.37648	0.98911
2226.32268	0.98906
2224.26888	0.98820
2222.21507	0.98785
2220.16127	0.98861
2218.10747	0.98911
2216.05366	0.98807
2213.99986	0.98713
2211.94606	0.98732
2209.89225	0.98719
2207.83845	0.98642
2205.78465	0.98583
2203.73084	0.98610
2201.67704	0.98817
2199.62324	0.99043
2197.56943	0.99071
2195.51563	0.98961
2193.46183	0.98864
2191.40802	0.98922
2189.35422	0.98981
2187.30042	0.98799
2185.24661	0.98577
2183.19281	0.98630
2181.13901	0.98872
2179.08520	0.99017
2177.03140	0.99049
2174.97760	0.99063
2172.92380	0.98952
2170.86999	0.98744
2168.81619	0.98719
2166.76239	0.98827
2164.70858	0.98816
2162.65478	0.98732
2160.60098	0.98775
2158.54717	0.99035
2156.49337	0.99262
2154.43957	0.99274
2152.38576	0.99136
2150.33196	0.98950
2148.27816	0.98872
2146.22435	0.98953
2144.17055	0.99056
2142.11675	0.99034
2140.06294	0.98945
2138.00914	0.98852
2135.95534	0.98813
2133.90153	0.98950
2131.84773	0.99134
2129.79393	0.99207
2127.74012	0.99177
2125.68632	0.99069
2123.63252	0.98947
2121.57871	0.98891
2119.52491	0.98919
2117.47111	0.98973
2115.41731	0.99003
2113.36350	0.98935
2111.30970	0.98765
2109.25590	0.98690
2107.20209	0.98772
2105.14829	0.98812
2103.09449	0.98753
2101.04068	0.98773
2098.98688	0.98937
2096.93308	0.99031
2094.87927	0.98922
2092.82547	0.98796
2090.77167	0.98850
2088.71786	0.99001
2086.66406	0.99035
2084.61026	0.98926
2082.55645	0.98835
2080.50265	0.98906
2078.44885	0.99027
2076.39504	0.99013
2074.34124	0.98907
2072.28744	0.98844
2070.23363	0.98881
2068.17983	0.98933
2066.12603	0.98929
2064.07223	0.98944
2062.01842	0.98967
2059.96462	0.98976
2057.91082	0.99072
2055.85701	0.99188
2053.80321	0.99118
2051.74941	0.98882
2049.69560	0.98692
2047.64180	0.98700
2045.58800	0.98753
2043.53419	0.98631
2041.48039	0.98518
2039.42659	0.98552
2037.37278	0.98584
2035.31898	0.98588
2033.26518	0.98512
2031.21137	0.98517
2029.15757	0.98793
2027.10377	0.99089
2025.04996	0.99234
2022.99616	0.99203
2020.94236	0.99134
2018.88855	0.99048
2016.83475	0.98812
2014.78095	0.98579
2012.72714	0.98488
2010.67334	0.98628
2008.61954	0.98965
2006.56574	0.99292
2004.51193	0.99502
2002.45813	0.99528
2000.40433	0.99376
1998.35052	0.99201
1996.29672	0.99129
1994.24292	0.99164
1992.18911	0.99189
1990.13531	0.99186
1988.08151	0.99273
1986.02770	0.99331
1983.97390	0.99257
1981.92010	0.99105
1979.86629	0.98893
1977.81249	0.98861
1975.75869	0.99060
1973.70488	0.99184
1971.65108	0.99213
1969.59728	0.99179
1967.54347	0.99166
1965.48967	0.99307
1963.43587	0.99443
1961.38206	0.99368
1959.32826	0.99251
1957.27446	0.99326
1955.22066	0.99383
1953.16685	0.99334
1951.11305	0.99284
1949.05925	0.99155
1947.00544	0.98974
1944.95164	0.98856
1942.89784	0.98858
1940.84403	0.99015
1938.79023	0.99152
1936.73643	0.99135
1934.68262	0.99050
1932.62882	0.98961
1930.57502	0.98891
1928.52121	0.98911
1926.46741	0.98996
1924.41361	0.99054
1922.35980	0.99032
1920.30600	0.98980
1918.25220	0.98991
1916.19839	0.99015
1914.14459	0.98974
1912.09079	0.98887
1910.03698	0.98821
1907.98318	0.98858
1905.92938	0.98945
1903.87557	0.98988
1901.82177	0.98977
1899.76797	0.98945
1897.71417	0.98898
1895.66036	0.98848
1893.60656	0.98869
1891.55276	0.98940
1889.49895	0.98959
1887.44515	0.98985
1885.39135	0.99038
1883.33754	0.99007
1881.28374	0.98943
1879.22994	0.98900
1877.17613	0.98871
1875.12233	0.98896
1873.06853	0.98950
1871.01472	0.98967
1868.96092	0.98962
1866.90712	0.98998
1864.85331	0.99017
1862.79951	0.98985
1860.74571	0.98948
1858.69190	0.98914
1856.63810	0.98907
1854.58430	0.98941
1852.53049	0.98955
1850.47669	0.98931
1848.42289	0.98908
1846.36908	0.98880
1844.31528	0.98887
1842.26148	0.98922
1840.20768	0.98893
1838.15387	0.98856
1836.10007	0.98889
1834.04627	0.98948
1831.99246	0.98968
1829.93866	0.98915
1827.88486	0.98834
1825.83105	0.98809
1823.77725	0.98831
1821.72345	0.98846
1819.66964	0.98853
1817.61584	0.98898
1815.56204	0.98916
1813.50823	0.98867
1811.45443	0.98850
1809.40063	0.98879
1807.34682	0.98877
1805.29302	0.98831
1803.23922	0.98788
1801.18541	0.98781
1799.13161	0.98794
1797.07781	0.98789
1795.02400	0.98772
1792.97020	0.98772
1790.91640	0.98745
1788.86260	0.98660
1786.80879	0.98588
1784.75499	0.98558
1782.70119	0.98553
1780.64738	0.98537
1778.59358	0.98509
1776.53978	0.98509
1774.48597	0.98531
1772.43217	0.98533
1770.37837	0.98495
1768.32456	0.98454
1766.27076	0.98433
1764.21696	0.98418
1762.16315	0.98381
1760.10935	0.98315
1758.05555	0.98252
1756.00174	0.98208
1753.94794	0.98193
1751.89414	0.98187
1749.84033	0.98135
1747.78653	0.97996
1745.73273	0.97857
1743.67892	0.97785
1741.62512	0.97713
1739.57132	0.97602
1737.51751	0.97545
1735.46371	0.97559
1733.40991	0.97526
1731.35611	0.97449
1729.30230	0.97378
1727.24850	0.97287
1725.19470	0.97189
1723.14089	0.97128
1721.08709	0.97139
1719.03329	0.97172
1716.97948	0.97114
1714.92568	0.96952
1712.87188	0.96841
1710.81807	0.96789
1708.76427	0.96758
1706.71047	0.96723
1704.65666	0.96661
1702.60286	0.96578
1700.54906	0.96424
1698.49525	0.96259
1696.44145	0.96157
1694.38765	0.96054
1692.33384	0.95988
1690.28004	0.95885
1688.22624	0.95690
1686.17243	0.95458
1684.11863	0.95184
1682.06483	0.95019
1680.01103	0.94972
1677.95722	0.94924
1675.90342	0.94829
1673.84962	0.94676
1671.79581	0.94510
1669.74201	0.94310
1667.68821	0.94127
1665.63440	0.94033
1663.58060	0.93968
1661.52680	0.93873
1659.47299	0.93757
1657.41919	0.93673
1655.36539	0.93626
1653.31158	0.93449
1651.25778	0.93225
1649.20398	0.93189
1647.15017	0.93143
1645.09637	0.93061
1643.04257	0.93044
1640.98876	0.93077
1638.93496	0.93155
1636.88116	0.93238
1634.82735	0.93286
1632.77355	0.93352
1630.71975	0.93432
1628.66594	0.93468
1626.61214	0.93471
1624.55834	0.93500
1622.50454	0.93549
1620.45073	0.93618
1618.39693	0.93751
1616.34313	0.93993
1614.28932	0.94249
1612.23552	0.94448
1610.18172	0.94634
1608.12791	0.94837
1606.07411	0.95022
1604.02031	0.95135
1601.96650	0.95215
1599.91270	0.95308
1597.85890	0.95408
1595.80509	0.95515
1593.75129	0.95636
1591.69749	0.95744
1589.64368	0.95817
1587.58988	0.95880
1585.53608	0.95955
1583.48227	0.96029
1581.42847	0.96102
1579.37467	0.96175
1577.32086	0.96250
1575.26706	0.96327
1573.21326	0.96377
1571.15945	0.96413
1569.10565	0.96443
1567.05185	0.96464
1564.99805	0.96487
1562.94424	0.96528
1560.89044	0.96568
1558.83664	0.96525
1556.78283	0.96480
1554.72903	0.96538
1552.67523	0.96581
1550.62142	0.96565
1548.56762	0.96556
1546.51382	0.96599
1544.46001	0.96657
1542.40621	0.96708
1540.35241	0.96736
1538.29860	0.96738
1536.24480	0.96786
1534.19100	0.96875
1532.13719	0.96938
1530.08339	0.96963
1528.02959	0.97011
1525.97578	0.97082
1523.92198	0.97135
1521.86818	0.97179
1519.81437	0.97206
1517.76057	0.97196
1515.70677	0.97201
1513.65297	0.97252
1511.59916	0.97334
1509.54536	0.97419
1507.49156	0.97458
1505.43775	0.97449
1503.38395	0.97435
1501.33015	0.97401
1499.27634	0.97361
1497.22254	0.97344
1495.16874	0.97325
1493.11493	0.97299
1491.06113	0.97266
1489.00733	0.97187
1486.95352	0.97048
1484.89972	0.96873
1482.84592	0.96632
1480.79211	0.96325
1478.73831	0.96028
1476.68451	0.95683
1474.63070	0.95092
1472.57690	0.93997
1470.52310	0.92699
1468.46929	0.91587
1466.41549	0.90310
1464.36169	0.88729
1462.30788	0.87532
1460.25408	0.86911
1458.20028	0.86452
1456.14648	0.86077
1454.09267	0.86098
1452.03887	0.86450
1449.98507	0.87189
1447.93126	0.88508
1445.87746	0.90099
1443.82366	0.91381
1441.76985	0.92238
1439.71605	0.92674
1437.66225	0.92810
1435.60844	0.92985
1433.55464	0.93515
1431.50084	0.94230
1429.44703	0.94853
1427.39323	0.95235
1425.33943	0.95483
1423.28562	0.95646
1421.23182	0.95718
1419.17802	0.95763
1417.12421	0.95835
1415.07041	0.95895
1413.01661	0.95922
1410.96280	0.95950
1408.90900	0.95983
1406.85520	0.96016
1404.80139	0.96052
1402.74759	0.96092
1400.69379	0.96125
1398.63999	0.96133
1396.58618	0.96091
1394.53238	0.95974
1392.47858	0.95815
1390.42477	0.95648
1388.37097	0.95313
1386.31717	0.94507
1384.26336	0.93038
1382.20956	0.90576
1380.15576	0.86891
1378.10195	0.83019
1376.04815	0.81195
1373.99435	0.82905
1371.94054	0.86586
1369.88674	0.89734
1367.83294	0.91763
1365.77913	0.92731
1363.72533	0.93012
1361.67153	0.92932
1359.61772	0.92805
1357.56392	0.92969
1355.51012	0.93527
1353.45631	0.94251
1351.40251	0.94856
1349.34871	0.95276
1347.29491	0.95567
1345.24110	0.95791
1343.18730	0.95985
1341.13350	0.96129
1339.07969	0.96176
1337.02589	0.96157
1334.97209	0.96136
1332.91828	0.96084
1330.86448	0.95990
1328.81068	0.95944
1326.75687	0.96000
1324.70307	0.96116
1322.64927	0.96216
1320.59546	0.96272
1318.54166	0.96304
1316.48786	0.96308
1314.43405	0.96264
1312.38025	0.96237
1310.32645	0.96251
1308.27264	0.96182
1306.21884	0.96000
1304.16504	0.95869
1302.11123	0.95899
1300.05743	0.95991
1298.00363	0.96030
1295.94982	0.96030
1293.89602	0.96038
1291.84222	0.96066
1289.78842	0.96127
1287.73461	0.96191
1285.68081	0.96207
1283.62701	0.96193
1281.57320	0.96188
1279.51940	0.96198
1277.46560	0.96208
1275.41179	0.96187
1273.35799	0.96128
1271.30419	0.96047
1269.25038	0.95964
1267.19658	0.95872
1265.14278	0.95766
1263.08897	0.95640
1261.03517	0.95451
1258.98137	0.95172
1256.92756	0.94875
1254.87376	0.94731
1252.81996	0.94819
1250.76615	0.94979
1248.71235	0.95043
1246.65855	0.95033
1244.60474	0.95019
1242.55094	0.94972
1240.49714	0.94870
1238.44334	0.94781
1236.38953	0.94727
1234.33573	0.94670
1232.28193	0.94604
1230.22812	0.94527
1228.17432	0.94418
1226.12052	0.94300
1224.06671	0.94196
1222.01291	0.94087
1219.95911	0.93964
1217.90530	0.93859
1215.85150	0.93804
1213.79770	0.93772
1211.74389	0.93718
1209.69009	0.93627
1207.63629	0.93524
1205.58248	0.93438
1203.52868	0.93349
1201.47488	0.93233
1199.42107	0.93110
1197.36727	0.92979
1195.31347	0.92819
1193.25966	0.92642
1191.20586	0.92475
1189.15206	0.92302
1187.09825	0.92090
1185.04445	0.91821
1182.99065	0.91480
1180.93685	0.91104
1178.88304	0.90697
1176.82924	0.90182
1174.77544	0.89512
1172.72163	0.88695
1170.66783	0.87804
1168.61403	0.87008
1166.56022	0.86469
1164.50642	0.86209
1162.45262	0.86140
1160.39881	0.86116
1158.34501	0.86027
1156.29121	0.85859
1154.23740	0.85647
1152.18360	0.85437
1150.12980	0.85258
1148.07599	0.85110
1146.02219	0.84987
1143.96839	0.84872
1141.91458	0.84760
1139.86078	0.84649
1137.80698	0.84511
1135.75317	0.84352
1133.69937	0.84153
1131.64557	0.83839
1129.59176	0.83419
1127.53796	0.82988
1125.48416	0.82578
1123.43036	0.82156
1121.37655	0.81697
1119.32275	0.81223
1117.26895	0.80777
1115.21514	0.80394
1113.16134	0.80070
1111.10754	0.79731
1109.05373	0.79339
1106.99993	0.78957
1104.94613	0.78615
1102.89232	0.78317
1100.83852	0.78102
1098.78472	0.77976
1096.73091	0.77891
1094.67711	0.77821
1092.62331	0.77781
1090.56950	0.77756
1088.51570	0.77717
1086.46190	0.77661
1084.40809	0.77594
1082.35429	0.77531
1080.30049	0.77477
1078.24668	0.77402
1076.19288	0.77275
1074.13908	0.77090
1072.08528	0.76865
1070.03147	0.76598
1067.97767	0.76282
1065.92387	0.75932
1063.87006	0.75561
1061.81626	0.75168
1059.76246	0.74750
1057.70865	0.74314
1055.65485	0.73853
1053.60105	0.73315
1051.54724	0.72705
1049.49344	0.72068
1047.43964	0.71399
1045.38583	0.70702
1043.33203	0.70060
1041.27823	0.69523
1039.22442	0.69054
1037.17062	0.68632
1035.11682	0.68275
1033.06301	0.68032
1031.00921	0.67945
1028.95541	0.68002
1026.90160	0.68114
1024.84780	0.68252
1022.79400	0.68456
1020.74019	0.68670
1018.68639	0.68815
1016.63259	0.68895
1014.57879	0.68923
1012.52498	0.68900
1010.47118	0.68864
1008.41738	0.68860
1006.36357	0.68910
1004.30977	0.69000
1002.25597	0.69067
1000.20216	0.69095
998.14836	0.69294
996.09456	0.70025
994.04075	0.71310
991.98695	0.72750
989.93315	0.74001
987.87934	0.75035
985.82554	0.75965
983.77174	0.76823
981.71793	0.77513
979.66413	0.77914
977.61033	0.77972
975.55652	0.77804
973.50272	0.77825
971.44892	0.78536
969.39511	0.79943
967.34131	0.81484
965.28751	0.82692
963.23371	0.83526
961.17990	0.84131
959.12610	0.84638
957.07230	0.85090
955.01849	0.85453
952.96469	0.85737
950.91089	0.85993
948.85708	0.86218
946.80328	0.86415
944.74948	0.86575
942.69567	0.86645
940.64187	0.86662
938.58807	0.86737
936.53426	0.86917
934.48046	0.87129
932.42666	0.87257
930.37285	0.87300
928.31905	0.87330
926.26525	0.87321
924.21144	0.87236
922.15764	0.87141
920.10384	0.87031
918.05003	0.86833
915.99623	0.86612
913.94243	0.86517
911.88862	0.86571
909.83482	0.86762
907.78102	0.87095
905.72722	0.87465
903.67341	0.87715
901.61961	0.87857
899.56581	0.88095
897.51200	0.88596
895.45820	0.89267
893.40440	0.89870
891.35059	0.90301
889.29679	0.90589
887.24299	0.90802
885.18918	0.90990
883.13538	0.91166
881.08158	0.91294
879.02777	0.91352
876.97397	0.91375
874.92017	0.91413
872.86636	0.91512
870.81256	0.91671
868.75876	0.91838
866.70495	0.91987
864.65115	0.92131
862.59735	0.92290
860.54354	0.92441
858.48974	0.92577
856.43594	0.92730
854.38213	0.92849
852.32833	0.92823
850.27453	0.92685
848.22073	0.92465
846.16692	0.91991
844.11312	0.91118
842.05932	0.90176
840.00551	0.89968
837.95171	0.90702
835.89791	0.91598
833.84410	0.92073
831.79030	0.92209
829.73650	0.92239
827.68269	0.92278
825.62889	0.92312
823.57509	0.92333
821.52128	0.92363
819.46748	0.92318
817.41368	0.92125
815.35987	0.91801
813.30607	0.91360
811.25227	0.90896
809.19846	0.90581
807.14466	0.90476
805.09086	0.90551
803.03705	0.90667
800.98325	0.90668
798.92945	0.90635
796.87565	0.90675
794.82184	0.90710
792.76804	0.90746
790.71424	0.90803
788.66043	0.90817
786.60663	0.90824
784.55283	0.90847
782.49902	0.90815
780.44522	0.90745
778.39142	0.90740
776.33761	0.90803
774.28381	0.90849
772.23001	0.90821
770.17620	0.90770
768.12240	0.90753
766.06860	0.90698
764.01479	0.90571
761.96099	0.90465
759.90719	0.90385
757.85338	0.90291
755.79958	0.90220
753.74578	0.90150
751.69197	0.90035
749.63817	0.89934
747.58437	0.89932
745.53056	0.89976
743.47676	0.89977
741.42296	0.89975
739.36916	0.90042
737.31535	0.90150
735.26155	0.90189
733.20775	0.90130
731.15394	0.90041
729.10014	0.90000
727.04634	0.89983
724.99253	0.89910
722.93873	0.89805
720.88493	0.89774
718.83112	0.89792
716.77732	0.89729
714.72352	0.89605
712.66971	0.89435
710.61591	0.89164
708.56211	0.88866
706.50830	0.88586
704.45450	0.88238
702.40070	0.87883
700.34689	0.87572
698.29309	0.87225
696.23929	0.86951
694.18548	0.86882
692.13168	0.86868
690.07788	0.86775
688.02408	0.86685
685.97027	0.86624
683.91647	0.86528
681.86267	0.86444
679.80886	0.86462
677.75506	0.86560
675.70126	0.86658
673.64745	0.86650
671.59365	0.86497
669.53985	0.86301
667.48604	0.86297
665.43224	0.86542
663.37844	0.86786
661.32463	0.87006
659.27083	0.87147
657.21703	0.87131
655.16322	0.87025
653.10942	0.86949
651.05562	0.86911
649.00181	0.86856
646.94801	0.86824
644.89421	0.86827
642.84040	0.86853
640.78660	0.86925
638.73280	0.86997
636.67899	0.86970
634.62519	0.86842
632.57139	0.86706
630.51759	0.86612
628.46378	0.86564
626.40998	0.86525
624.35618	0.86405
622.30237	0.86154
620.24857	0.85940
618.19477	0.85932
616.14096	0.85964
614.08716	0.85824
612.03336	0.85570
609.97955	0.85265
607.92575	0.84927
605.87195	0.84687
603.81814	0.84587
601.76434	0.84522
599.71054	0.84403
597.65673	0.84302
595.60293	0.84352
593.54913	0.84448
591.49532	0.84379
589.44152	0.84175
587.38772	0.84007
585.33391	0.83870
583.28011	0.83706
581.22631	0.83579
579.17250	0.83437
577.11870	0.83250
575.06490	0.83114
573.01110	0.82980
570.95729	0.82772
568.90349	0.82603
566.84969	0.82584
564.79588	0.82537
562.74208	0.82357
560.68828	0.82149
558.63447	0.81877
556.58067	0.81510
554.52687	0.81157
552.47306	0.80798
550.41926	0.80393
548.36546	0.80050
546.31165	0.79689
544.25785	0.79196
542.20405	0.78745
540.15024	0.78430
538.09644	0.78222
536.04264	0.78084
533.98883	0.77892
531.93503	0.77638
529.88123	0.77501
527.82742	0.77620
525.77362	0.77888
523.71982	0.78124
521.66602	0.78360
519.61221	0.78593
517.55841	0.78864
515.50461	0.79264
513.45080	0.79645
511.39700	0.79850
509.34320	0.79978
507.28939	0.80181
505.23559	0.80399
503.18179	0.80565
501.12798	0.80702
499.07418	0.80738
497.02038	0.80653
494.96657	0.80606
492.91277	0.80578
490.85897	0.80404
488.80516	0.80116
486.75136	0.79771
484.69756	0.79335
482.64375	0.78679
480.58995	0.77695
478.53615	0.76652
476.48234	0.75896
474.42854	0.75336
472.37474	0.74730
470.32093	0.74025
468.26713	0.73393
466.21333	0.73022
464.15953	0.72956
462.10572	0.73168
460.05192	0.73623
457.99812	0.74381
455.94431	0.75199
453.89051	0.75767
451.83671	0.76348
449.78290	0.76931
447.72910	0.77251
445.67530	0.77303
443.62149	0.77350
441.56769	0.77453
439.51389	0.77454
437.46008	0.77509
435.40628	0.77319
433.35248	0.76779
431.29867	0.76729
429.24487	0.77212
427.19107	0.77671
425.13726	0.77994
423.08346	0.78128
421.02966	0.78023
418.97585	0.78170
416.92205	0.79117
414.86825	0.80089
412.81445	0.80707
410.76064	0.80940
408.70684	0.81018
406.65304	0.81335
404.59923	0.81831
402.54543	0.81964
400.49163	0.81367
398.43782	0.80994
