3996.70104	0.99518
3994.64724	0.99493
3992.59344	0.99512
3990.53964	0.99569
3988.48583	0.99578
3986.43203	0.99527
3984.37823	0.99465
3982.32442	0.99409
3980.27062	0.99368
3978.21682	0.99362
3976.16301	0.99402
3974.10921	0.99455
3972.05541	0.99505
3970.00160	0.99581
3967.94780	0.99613
3965.89400	0.99559
3963.84019	0.99495
3961.78639	0.99480
3959.73259	0.99492
3957.67878	0.99489
3955.62498	0.99480
3953.57118	0.99486
3951.51737	0.99505
3949.46357	0.99526
3947.40977	0.99524
3945.35596	0.99498
3943.30216	0.99493
3941.24836	0.99521
3939.19455	0.99548
3937.14075	0.99535
3935.08695	0.99485
3933.03315	0.99448
3930.97934	0.99438
3928.92554	0.99434
3926.87174	0.99421
3924.81793	0.99414
3922.76413	0.99431
3920.71033	0.99477
3918.65652	0.99530
3916.60272	0.99558
3914.54892	0.99533
3912.49511	0.99458
3910.44131	0.99419
3908.38751	0.99432
3906.33370	0.99455
3904.27990	0.99485
3902.22610	0.99443
3900.17229	0.99325
3898.11849	0.99307
3896.06469	0.99391
3894.01088	0.99434
3891.95708	0.99414
3889.90328	0.99432
3887.84947	0.99477
3885.79567	0.99467
3883.74187	0.99431
3881.68807	0.99443
3879.63426	0.99497
3877.58046	0.99525
3875.52666	0.99504
3873.47285	0.99492
3871.41905	0.99530
3869.36525	0.99557
3867.31144	0.99507
3865.25764	0.99453
3863.20384	0.99456
3861.15003	0.99478
3859.09623	0.99474
3857.04243	0.99446
3854.98862	0.99430
3852.93482	0.99467
3850.88102	0.99489
3848.82721	0.99475
3846.77341	0.99465
3844.71961	0.99440
3842.66580	0.99403
3840.61200	0.99426
3838.55820	0.99492
3836.50439	0.99493
3834.45059	0.99445
3832.39679	0.99446
3830.34298	0.99477
3828.28918	0.99484
3826.23538	0.99490
3824.18158	0.99496
3822.12777	0.99515
3820.07397	0.99589
3818.02017	0.99640
3815.96636	0.99642
3813.91256	0.99626
3811.85876	0.99578
3809.80495	0.99537
3807.75115	0.99552
3805.69735	0.99583
3803.64354	0.99582
3801.58974	0.99571
3799.53594	0.99556
3797.48213	0.99508
3795.42833	0.99448
3793.37453	0.99450
3791.32072	0.99497
3789.26692	0.99521
3787.21312	0.99526
3785.15931	0.99545
3783.10551	0.99558
3781.05171	0.99528
3778.99790	0.99491
3776.94410	0.99502
3774.89030	0.99530
3772.83650	0.99536
3770.78269	0.99524
3768.72889	0.99505
3766.67509	0.99487
3764.62128	0.99483
3762.56748	0.99474
3760.51368	0.99504
3758.45987	0.99609
3756.40607	0.99649
3754.35227	0.99578
3752.29846	0.99510
3750.24466	0.99531
3748.19086	0.99580
3746.13705	0.99597
3744.08325	0.99580
3742.02945	0.99572
3739.97564	0.99610
3737.92184	0.99674
3735.86804	0.99730
3733.81423	0.99692
3731.76043	0.99576
3729.70663	0.99514
3727.65282	0.99545
3725.59902	0.99610
3723.54522	0.99612
3721.49141	0.99579
3719.43761	0.99570
3717.38381	0.99514
3715.33001	0.99465
3713.27620	0.99510
3711.22240	0.99550
3709.16860	0.99513
3707.11479	0.99480
3705.06099	0.99477
3703.00719	0.99477
3700.95338	0.99456
3698.89958	0.99436
3696.84578	0.99429
3694.79197	0.99402
3692.73817	0.99332
3690.68437	0.99295
3688.63056	0.99389
3686.57676	0.99486
3684.52296	0.99499
3682.46915	0.99477
3680.41535	0.99485
3678.36155	0.99517
3676.30774	0.99494
3674.25394	0.99415
3672.20014	0.99340
3670.14633	0.99308
3668.09253	0.99356
3666.03873	0.99396
3663.98492	0.99392
3661.93112	0.99375
3659.87732	0.99362
3657.82352	0.99355
3655.76971	0.99353
3653.71591	0.99345
3651.66211	0.99322
3649.60830	0.99325
3647.55450	0.99396
3645.50070	0.99436
3643.44689	0.99466
3641.39309	0.99497
3639.33929	0.99502
3637.28548	0.99470
3635.23168	0.99362
3633.17788	0.99253
3631.12407	0.99223
3629.07027	0.99225
3627.01647	0.99245
3624.96266	0.99245
3622.90886	0.99187
3620.85506	0.99097
3618.80125	0.99045
3616.74745	0.99132
3614.69365	0.99282
3612.63984	0.99371
3610.58604	0.99360
3608.53224	0.99264
3606.47844	0.99168
3604.42463	0.99125
3602.37083	0.99131
3600.31703	0.99190
3598.26322	0.99233
3596.20942	0.99234
3594.15562	0.99226
3592.10181	0.99194
3590.04801	0.99144
3587.99421	0.99095
3585.94040	0.99057
3583.88660	0.99023
3581.83280	0.98976
3579.77899	0.98941
3577.72519	0.98934
3575.67139	0.98980
3573.61758	0.99048
3571.56378	0.99044
3569.50998	0.98977
3567.45617	0.98939
3565.40237	0.98976
3563.34857	0.99024
3561.29476	0.99016
3559.24096	0.98970
3557.18716	0.98942
3555.13335	0.98918
3553.07955	0.98909
3551.02575	0.98914
3548.97195	0.98850
3546.91814	0.98747
3544.86434	0.98701
3542.81054	0.98691
3540.75673	0.98692
3538.70293	0.98709
3536.64913	0.98718
3534.59532	0.98716
3532.54152	0.98709
3530.48772	0.98705
3528.43391	0.98716
3526.38011	0.98725
3524.32631	0.98681
3522.27250	0.98603
3520.21870	0.98577
3518.16490	0.98596
3516.11109	0.98618
3514.05729	0.98638
3512.00349	0.98636
3509.94968	0.98616
3507.89588	0.98575
3505.84208	0.98514
3503.78827	0.98503
3501.73447	0.98524
3499.68067	0.98508
3497.62687	0.98487
3495.57306	0.98445
3493.51926	0.98361
3491.46546	0.98296
3489.41165	0.98317
3487.35785	0.98397
3485.30405	0.98466
3483.25024	0.98494
3481.19644	0.98436
3479.14264	0.98326
3477.08883	0.98256
3475.03503	0.98235
3472.98123	0.98237
3470.92742	0.98223
3468.87362	0.98190
3466.81982	0.98161
3464.76601	0.98142
3462.71221	0.98142
3460.65841	0.98128
3458.60460	0.98082
3456.55080	0.98045
3454.49700	0.98046
3452.44319	0.98075
3450.38939	0.98105
3448.33559	0.98096
3446.28178	0.98042
3444.22798	0.97995
3442.17418	0.97944
3440.12038	0.97876
3438.06657	0.97870
3436.01277	0.97931
3433.95897	0.97961
3431.90516	0.97956
3429.85136	0.97956
3427.79756	0.97917
3425.74375	0.97823
3423.68995	0.97780
3421.63615	0.97800
3419.58234	0.97821
3417.52854	0.97849
3415.47474	0.97852
3413.42093	0.97775
3411.36713	0.97667
3409.31333	0.97627
3407.25952	0.97670
3405.20572	0.97707
3403.15192	0.97688
3401.09811	0.97658
3399.04431	0.97650
3396.99051	0.97648
3394.93670	0.97619
3392.88290	0.97556
3390.82910	0.97513
3388.77529	0.97493
3386.72149	0.97475
3384.66769	0.97486
3382.61389	0.97522
3380.56008	0.97533
3378.50628	0.97465
3376.45248	0.97344
3374.39867	0.97274
3372.34487	0.97281
3370.29107	0.97302
3368.23726	0.97291
3366.18346	0.97282
3364.12966	0.97320
3362.07585	0.97380
3360.02205	0.97409
3357.96825	0.97362
3355.91444	0.97252
3353.86064	0.97164
3351.80684	0.97151
3349.75303	0.97162
3347.69923	0.97114
3345.64543	0.97040
3343.59162	0.97041
3341.53782	0.97091
3339.48402	0.97114
3337.43021	0.97111
3335.37641	0.97089
3333.32261	0.97043
3331.26881	0.96993
3329.21500	0.97003
3327.16120	0.97083
3325.10740	0.97139
3323.05359	0.97130
3320.99979	0.97103
3318.94599	0.97081
3316.89218	0.97077
3314.83838	0.97091
3312.78458	0.97091
3310.73077	0.97088
3308.67697	0.97100
3306.62317	0.97091
3304.56936	0.97077
3302.51556	0.97085
3300.46176	0.97071
3298.40795	0.97030
3296.35415	0.97026
3294.30035	0.97067
3292.24654	0.97103
3290.19274	0.97075
3288.13894	0.96975
3286.08513	0.96916
3284.03133	0.96979
3281.97753	0.97075
3279.92372	0.97112
3277.86992	0.97101
3275.81612	0.97069
3273.76232	0.97037
3271.70851	0.97071
3269.65471	0.97178
3267.60091	0.97252
3265.54710	0.97242
3263.49330	0.97213
3261.43950	0.97219
3259.38569	0.97224
3257.33189	0.97196
3255.27809	0.97172
3253.22428	0.97207
3251.17048	0.97283
3249.11668	0.97299
3247.06287	0.97253
3245.00907	0.97256
3242.95527	0.97312
3240.90146	0.97325
3238.84766	0.97296
3236.79386	0.97312
3234.74005	0.97386
3232.68625	0.97427
3230.63245	0.97380
3228.57864	0.97312
3226.52484	0.97338
3224.47104	0.97445
3222.41724	0.97499
3220.36343	0.97483
3218.30963	0.97498
3216.25583	0.97544
3214.20202	0.97567
3212.14822	0.97561
3210.09442	0.97523
3208.04061	0.97495
3205.98681	0.97538
3203.93301	0.97587
3201.87920	0.97575
3199.82540	0.97552
3197.77160	0.97549
3195.71779	0.97554
3193.66399	0.97573
3191.61019	0.97606
3189.55638	0.97654
3187.50258	0.97700
3185.44878	0.97725
3183.39497	0.97739
3181.34117	0.97754
3179.28737	0.97753
3177.23356	0.97743
3175.17976	0.97746
3173.12596	0.97769
3171.07215	0.97803
3169.01835	0.97831
3166.96455	0.97840
3164.91075	0.97826
3162.85694	0.97791
3160.80314	0.97772
3158.74934	0.97813
3156.69553	0.97891
3154.64173	0.97940
3152.58793	0.97954
3150.53412	0.97975
3148.48032	0.97989
3146.42652	0.97977
3144.37271	0.97977
3142.31891	0.97985
3140.26511	0.97982
3138.21130	0.97991
3136.15750	0.98017
3134.10370	0.98062
3132.04989	0.98129
3129.99609	0.98190
3127.94229	0.98222
3125.88848	0.98213
3123.83468	0.98185
3121.78088	0.98174
3119.72707	0.98171
3117.67327	0.98160
3115.61947	0.98141
3113.56566	0.98120
3111.51186	0.98122
3109.45806	0.98167
3107.40426	0.98227
3105.35045	0.98276
3103.29665	0.98295
3101.24285	0.98260
3099.18904	0.98216
3097.13524	0.98210
3095.08144	0.98210
3093.02763	0.98202
3090.97383	0.98235
3088.92003	0.98291
3086.86622	0.98312
3084.81242	0.98306
3082.75862	0.98322
3080.70481	0.98373
3078.65101	0.98408
3076.59721	0.98382
3074.54340	0.98336
3072.48960	0.98328
3070.43580	0.98340
3068.38199	0.98353
3066.32819	0.98398
3064.27439	0.98456
3062.22058	0.98490
3060.16678	0.98509
3058.11298	0.98512
3056.05918	0.98494
3054.00537	0.98478
3051.95157	0.98498
3049.89777	0.98553
3047.84396	0.98579
3045.79016	0.98555
3043.73636	0.98534
3041.68255	0.98550
3039.62875	0.98578
3037.57495	0.98610
3035.52114	0.98636
3033.46734	0.98628
3031.41354	0.98624
3029.35973	0.98628
3027.30593	0.98642
3025.25213	0.98697
3023.19832	0.98735
3021.14452	0.98702
3019.09072	0.98672
3017.03691	0.98705
3014.98311	0.98745
3012.92931	0.98731
3010.87550	0.98693
3008.82170	0.98668
3006.76790	0.98653
3004.71409	0.98670
3002.66029	0.98711
3000.60649	0.98728
2998.55269	0.98729
2996.49888	0.98751
2994.44508	0.98780
2992.39128	0.98786
2990.33747	0.98770
2988.28367	0.98754
2986.22987	0.98783
2984.17606	0.98818
2982.12226	0.98794
2980.06846	0.98763
2978.01465	0.98757
2975.96085	0.98742
2973.90705	0.98736
2971.85324	0.98748
2969.79944	0.98742
2967.74564	0.98707
2965.69183	0.98687
2963.63803	0.98718
2961.58423	0.98749
2959.53042	0.98728
2957.47662	0.98711
2955.42282	0.98723
2953.36901	0.98703
2951.31521	0.98648
2949.26141	0.98627
2947.20761	0.98659
2945.15380	0.98685
2943.10000	0.98663
2941.04620	0.98628
2938.99239	0.98620
2936.93859	0.98625
2934.88479	0.98619
2932.83098	0.98607
2930.77718	0.98589
2928.72338	0.98561
2926.66957	0.98551
2924.61577	0.98535
2922.56197	0.98480
2920.50816	0.98449
2918.45436	0.98458
2916.40056	0.98458
2914.34675	0.98450
2912.29295	0.98434
2910.23915	0.98403
2908.18534	0.98397
2906.13154	0.98415
2904.07774	0.98406
2902.02393	0.98401
2899.97013	0.98423
2897.91633	0.98439
2895.86252	0.98415
2893.80872	0.98353
2891.75492	0.98324
2889.70112	0.98366
2887.64731	0.98426
2885.59351	0.98438
2883.53971	0.98415
2881.48590	0.98413
2879.43210	0.98427
2877.37830	0.98460
2875.32449	0.98517
2873.27069	0.98535
2871.21689	0.98498
2869.16308	0.98463
2867.10928	0.98478
2865.05548	0.98530
2863.00167	0.98586
2860.94787	0.98618
2858.89407	0.98596
2856.84026	0.98556
2854.78646	0.98564
2852.73266	0.98603
2850.67885	0.98630
2848.62505	0.98645
2846.57125	0.98666
2844.51744	0.98706
2842.46364	0.98711
2840.40984	0.98671
2838.35603	0.98671
2836.30223	0.98702
2834.24843	0.98703
2832.19463	0.98710
2830.14082	0.98746
2828.08702	0.98763
2826.03322	0.98775
2823.97941	0.98816
2821.92561	0.98841
2819.87181	0.98825
2817.81800	0.98794
2815.76420	0.98773
2813.71040	0.98783
2811.65659	0.98819
2809.60279	0.98845
2807.54899	0.98844
2805.49518	0.98835
2803.44138	0.98825
2801.38758	0.98828
2799.33377	0.98848
2797.27997	0.98856
2795.22617	0.98851
2793.17236	0.98842
2791.11856	0.98842
2789.06476	0.98847
2787.01095	0.98851
2784.95715	0.98840
2782.90335	0.98822
2780.84955	0.98854
2778.79574	0.98923
2776.74194	0.98956
2774.68814	0.98925
2772.63433	0.98864
2770.58053	0.98832
2768.52673	0.98855
2766.47292	0.98902
2764.41912	0.98942
2762.36532	0.98965
2760.31151	0.98970
2758.25771	0.98967
2756.20391	0.98968
2754.15010	0.98967
2752.09630	0.98954
2750.04250	0.98938
2747.98869	0.98927
2745.93489	0.98922
2743.88109	0.98939
2741.82728	0.98980
2739.77348	0.99033
2737.71968	0.99053
2735.66587	0.99020
2733.61207	0.98991
2731.55827	0.98981
2729.50446	0.98970
2727.45066	0.98965
2725.39686	0.98959
2723.34306	0.98943
2721.28925	0.98941
2719.23545	0.98967
2717.18165	0.98998
2715.12784	0.99013
2713.07404	0.99007
2711.02024	0.99000
2708.96643	0.98999
2706.91263	0.99008
2704.85883	0.99026
2702.80502	0.99024
2700.75122	0.99011
2698.69742	0.98998
2696.64361	0.98995
2694.58981	0.99011
2692.53601	0.99026
2690.48220	0.99041
2688.42840	0.99071
2686.37460	0.99093
2684.32079	0.99072
2682.26699	0.99028
2680.21319	0.99003
2678.15938	0.98989
2676.10558	0.98982
2674.05178	0.98997
2671.99797	0.99022
2669.94417	0.99037
2667.89037	0.99034
2665.83657	0.99017
2663.78276	0.99003
2661.72896	0.99001
2659.67516	0.99010
2657.62135	0.99016
2655.56755	0.98992
2653.51375	0.98955
2651.45994	0.98934
2649.40614	0.98917
2647.35234	0.98917
2645.29853	0.98951
2643.24473	0.98992
2641.19093	0.99017
2639.13712	0.99019
2637.08332	0.98999
2635.02952	0.98979
2632.97571	0.98982
2630.92191	0.98988
2628.86811	0.98966
2626.81430	0.98948
2624.76050	0.98970
2622.70670	0.99017
2620.65289	0.99046
2618.59909	0.99038
2616.54529	0.99037
2614.49149	0.99050
2612.43768	0.99052
2610.38388	0.99045
2608.33008	0.99026
2606.27627	0.99013
2604.22247	0.99038
2602.16867	0.99058
2600.11486	0.99018
2598.06106	0.98976
2596.00726	0.98999
2593.95345	0.99042
2591.89965	0.99060
2589.84585	0.99046
2587.79204	0.98998
2585.73824	0.98957
2583.68444	0.98972
2581.63063	0.99025
2579.57683	0.99060
2577.52303	0.99054
2575.46922	0.99037
2573.41542	0.99043
2571.36162	0.99088
2569.30781	0.99133
2567.25401	0.99136
2565.20021	0.99141
2563.14640	0.99165
2561.09260	0.99153
2559.03880	0.99105
2556.98500	0.99103
2554.93119	0.99159
2552.87739	0.99189
2550.82359	0.99169
2548.76978	0.99139
2546.71598	0.99152
2544.66218	0.99189
2542.60837	0.99174
2540.55457	0.99130
2538.50077	0.99102
2536.44696	0.99096
2534.39316	0.99144
2532.33936	0.99202
2530.28555	0.99200
2528.23175	0.99154
2526.17795	0.99081
2524.12414	0.99016
2522.07034	0.99023
2520.01654	0.99079
2517.96273	0.99116
2515.90893	0.99114
2513.85513	0.99105
2511.80132	0.99126
2509.74752	0.99167
2507.69372	0.99203
2505.63992	0.99207
2503.58611	0.99144
2501.53231	0.99044
2499.47851	0.99033
2497.42470	0.99133
2495.37090	0.99192
2493.31710	0.99174
2491.26329	0.99179
2489.20949	0.99203
2487.15569	0.99189
2485.10188	0.99167
2483.04808	0.99188
2480.99428	0.99224
2478.94047	0.99195
2476.88667	0.99124
2474.83287	0.99155
2472.77906	0.99290
2470.72526	0.99350
2468.67146	0.99293
2466.61765	0.99225
2464.56385	0.99205
2462.51005	0.99211
2460.45624	0.99252
2458.40244	0.99317
2456.34864	0.99296
2454.29483	0.99216
2452.24103	0.99220
2450.18723	0.99254
2448.13343	0.99251
2446.07962	0.99262
2444.02582	0.99248
2441.97202	0.99202
2439.91821	0.99199
2437.86441	0.99216
2435.81061	0.99190
2433.75680	0.99128
2431.70300	0.99097
2429.64920	0.99148
2427.59539	0.99220
2425.54159	0.99218
2423.48779	0.99185
2421.43398	0.99196
2419.38018	0.99233
2417.32638	0.99247
2415.27257	0.99226
2413.21877	0.99201
2411.16497	0.99186
2409.11116	0.99185
2407.05736	0.99230
2405.00356	0.99280
2402.94975	0.99283
2400.89595	0.99261
2398.84215	0.99205
2396.78834	0.99142
2394.73454	0.99140
2392.68074	0.99167
2390.62694	0.99173
2388.57313	0.99156
2386.51933	0.99145
2384.46553	0.99192
2382.41172	0.99268
2380.35792	0.99315
2378.30412	0.99339
2376.25031	0.99322
2374.19651	0.99286
2372.14271	0.99275
2370.08890	0.99220
2368.03510	0.99108
2365.98130	0.99017
2363.92749	0.99006
2361.87369	0.99040
2359.81989	0.99002
2357.76608	0.98959
2355.71228	0.99044
2353.65848	0.99152
2351.60467	0.99190
2349.55087	0.99180
2347.49707	0.99118
2345.44326	0.99026
2343.38946	0.98989
2341.33566	0.99054
2339.28186	0.99186
2337.22805	0.99261
2335.17425	0.99189
2333.12045	0.99127
2331.06664	0.99246
2329.01284	0.99362
2326.95904	0.99269
2324.90523	0.99079
2322.85143	0.98961
2320.79763	0.98962
2318.74382	0.98996
2316.69002	0.98993
2314.63622	0.99035
2312.58241	0.99143
2310.52861	0.99202
2308.47481	0.99215
2306.42100	0.99272
2304.36720	0.99309
2302.31340	0.99210
2300.25959	0.99068
2298.20579	0.99010
2296.15199	0.99038
2294.09818	0.99111
2292.04438	0.99147
2289.99058	0.99116
2287.93677	0.99071
2285.88297	0.99060
2283.82917	0.99050
2281.77537	0.99036
2279.72156	0.99068
2277.66776	0.99082
2275.61396	0.99064
2273.56015	0.99069
2271.50635	0.99049
2269.45255	0.99015
2267.39874	0.99051
2265.34494	0.99117
2263.29114	0.99110
2261.23733	0.99018
2259.18353	0.98922
2257.12973	0.98929
2255.07592	0.99112
2253.02212	0.99334
2250.96832	0.99316
2248.91451	0.99145
2246.86071	0.99096
2244.80691	0.99198
2242.75310	0.99387
2240.69930	0.99511
2238.64550	0.99429
2236.59169	0.99238
2234.53789	0.99116
2232.48409	0.99178
2230.43029	0.99321
2228.37648	0.99350
2226.32268	0.99334
2224.26888	0.99317
2222.21507	0.99237
2220.16127	0.99160
2218.10747	0.99110
2216.05366	0.99099
2213.99986	0.99109
2211.94606	0.99097
2209.89225	0.99127
2207.83845	0.99154
2205.78465	0.99144
2203.73084	0.99277
2201.67704	0.99479
2199.62324	0.99556
2197.56943	0.99627
2195.51563	0.99636
2193.46183	0.99356
2191.40802	0.98986
2189.35422	0.98899
2187.30042	0.99070
2185.24661	0.99213
2183.19281	0.99168
2181.13901	0.99063
2179.08520	0.99078
2177.03140	0.99160
2174.97760	0.99344
2172.92380	0.99650
2170.86999	0.99892
2168.81619	0.99985
2166.76239	0.99829
2164.70858	0.99362
2162.65478	0.98937
2160.60098	0.98905
2158.54717	0.99026
2156.49337	0.99054
2154.43957	0.99248
2152.38576	0.99581
2150.33196	0.99733
2148.27816	0.99719
2146.22435	0.99598
2144.17055	0.99356
2142.11675	0.99168
2140.06294	0.99161
2138.00914	0.99291
2135.95534	0.99454
2133.90153	0.99531
2131.84773	0.99509
2129.79393	0.99488
2127.74012	0.99415
2125.68632	0.99289
2123.63252	0.99291
2121.57871	0.99369
2119.52491	0.99310
2117.47111	0.99159
2115.41731	0.99119
2113.36350	0.99260
2111.30970	0.99384
2109.25590	0.99297
2107.20209	0.99165
2105.14829	0.99210
2103.09449	0.99355
2101.04068	0.99443
2098.98688	0.99427
2096.93308	0.99437
2094.87927	0.99576
2092.82547	0.99613
2090.77167	0.99432
2088.71786	0.99286
2086.66406	0.99267
2084.61026	0.99290
2082.55645	0.99306
2080.50265	0.99243
2078.44885	0.99181
2076.39504	0.99225
2074.34124	0.99212
2072.28744	0.99116
2070.23363	0.99135
2068.17983	0.99269
2066.12603	0.99391
2064.07223	0.99469
2062.01842	0.99500
2059.96462	0.99500
2057.91082	0.99553
2055.85701	0.99512
2053.80321	0.99255
2051.74941	0.99052
2049.69560	0.99074
2047.64180	0.99176
2045.58800	0.99204
2043.53419	0.99230
2041.48039	0.99249
2039.42659	0.99181
2037.37278	0.99210
2035.31898	0.99415
2033.26518	0.99553
2031.21137	0.99494
2029.15757	0.99347
2027.10377	0.99342
2025.04996	0.99522
2022.99616	0.99533
2020.94236	0.99409
2018.88855	0.99346
2016.83475	0.99272
2014.78095	0.99396
2012.72714	0.99660
2010.67334	0.99741
2008.61954	0.99780
2006.56574	0.99813
2004.51193	0.99533
2002.45813	0.99185
2000.40433	0.99237
1998.35052	0.99521
1996.29672	0.99669
1994.24292	0.99613
1992.18911	0.99372
1990.13531	0.99196
1988.08151	0.99255
1986.02770	0.99321
1983.97390	0.99289
1981.92010	0.99162
1979.86629	0.99023
1977.81249	0.99033
1975.75869	0.99144
1973.70488	0.99219
1971.65108	0.99163
1969.59728	0.99096
1967.54347	0.99212
1965.48967	0.99403
1963.43587	0.99454
1961.38206	0.99374
1959.32826	0.99257
1957.27446	0.99160
1955.22066	0.99099
1953.16685	0.99155
1951.11305	0.99399
1949.05925	0.99534
1947.00544	0.99364
1944.95164	0.99129
1942.89784	0.99029
1940.84403	0.99105
1938.79023	0.99242
1936.73643	0.99339
1934.68262	0.99400
1932.62882	0.99436
1930.57502	0.99448
1928.52121	0.99448
1926.46741	0.99466
1924.41361	0.99495
1922.35980	0.99450
1920.30600	0.99342
1918.25220	0.99301
1916.19839	0.99310
1914.14459	0.99279
1912.09079	0.99271
1910.03698	0.99319
1907.98318	0.99352
1905.92938	0.99347
1903.87557	0.99341
1901.82177	0.99337
1899.76797	0.99284
1897.71417	0.99229
1895.66036	0.99283
1893.60656	0.99396
1891.55276	0.99440
1889.49895	0.99413
1887.44515	0.99384
1885.39135	0.99332
1883.33754	0.99276
1881.28374	0.99274
1879.22994	0.99269
1877.17613	0.99231
1875.12233	0.99221
1873.06853	0.99285
1871.01472	0.99380
1868.96092	0.99421
1866.90712	0.99382
1864.85331	0.99300
1862.79951	0.99259
1860.74571	0.99288
1858.69190	0.99336
1856.63810	0.99383
1854.58430	0.99423
1852.53049	0.99456
1850.47669	0.99459
1848.42289	0.99422
1846.36908	0.99377
1844.31528	0.99358
1842.26148	0.99361
1840.20768	0.99351
1838.15387	0.99328
1836.10007	0.99309
1834.04627	0.99282
1831.99246	0.99243
1829.93866	0.99240
1827.88486	0.99279
1825.83105	0.99321
1823.77725	0.99369
1821.72345	0.99404
1819.66964	0.99404
1817.61584	0.99365
1815.56204	0.99321
1813.50823	0.99315
1811.45443	0.99363
1809.40063	0.99406
1807.34682	0.99370
1805.29302	0.99302
1803.23922	0.99260
1801.18541	0.99252
1799.13161	0.99244
1797.07781	0.99219
1795.02400	0.99227
1792.97020	0.99300
1790.91640	0.99355
1788.86260	0.99327
1786.80879	0.99282
1784.75499	0.99267
1782.70119	0.99259
1780.64738	0.99245
1778.59358	0.99261
1776.53978	0.99299
1774.48597	0.99332
1772.43217	0.99363
1770.37837	0.99386
1768.32456	0.99375
1766.27076	0.99339
1764.21696	0.99311
1762.16315	0.99323
1760.10935	0.99363
1758.05555	0.99366
1756.00174	0.99324
1753.94794	0.99303
1751.89414	0.99327
1749.84033	0.99324
1747.78653	0.99259
1745.73273	0.99202
1743.67892	0.99175
1741.62512	0.99162
1739.57132	0.99170
1737.51751	0.99207
1735.46371	0.99242
1733.40991	0.99258
1731.35611	0.99256
1729.30230	0.99249
1727.24850	0.99229
1725.19470	0.99194
1723.14089	0.99162
1721.08709	0.99138
1719.03329	0.99105
1716.97948	0.99128
1714.92568	0.99211
1712.87188	0.99232
1710.81807	0.99206
1708.76427	0.99183
1706.71047	0.99168
1704.65666	0.99136
1702.60286	0.99098
1700.54906	0.99119
1698.49525	0.99166
1696.44145	0.99149
1694.38765	0.99097
1692.33384	0.99044
1690.28004	0.98984
1688.22624	0.98923
1686.17243	0.98864
1684.11863	0.98838
1682.06483	0.98881
1680.01103	0.98891
1677.95722	0.98846
1675.90342	0.98802
1673.84962	0.98781
1671.79581	0.98730
1669.74201	0.98666
1667.68821	0.98629
1665.63440	0.98596
1663.58060	0.98575
1661.52680	0.98580
1659.47299	0.98576
1657.41919	0.98542
1655.36539	0.98508
1653.31158	0.98515
1651.25778	0.98495
1649.20398	0.98430
1647.15017	0.98407
1645.09637	0.98443
1643.04257	0.98454
1640.98876	0.98438
1638.93496	0.98406
1636.88116	0.98368
1634.82735	0.98407
1632.77355	0.98474
1630.71975	0.98499
1628.66594	0.98507
1626.61214	0.98504
1624.55834	0.98510
1622.50454	0.98540
1620.45073	0.98567
1618.39693	0.98599
1616.34313	0.98642
1614.28932	0.98652
1612.23552	0.98653
1610.18172	0.98674
1608.12791	0.98691
1606.07411	0.98682
1604.02031	0.98674
1601.96650	0.98693
1599.91270	0.98719
1597.85890	0.98735
1595.80509	0.98763
1593.75129	0.98787
1591.69749	0.98795
1589.64368	0.98809
1587.58988	0.98832
1585.53608	0.98853
1583.48227	0.98872
1581.42847	0.98880
1579.37467	0.98880
1577.32086	0.98898
1575.26706	0.98917
1573.21326	0.98891
1571.15945	0.98855
1569.10565	0.98856
1567.05185	0.98878
1564.99805	0.98893
1562.94424	0.98908
1560.89044	0.98924
1558.83664	0.98943
1556.78283	0.98970
1554.72903	0.98996
1552.67523	0.98996
1550.62142	0.98972
1548.56762	0.98939
1546.51382	0.98899
1544.46001	0.98874
1542.40621	0.98892
1540.35241	0.98923
1538.29860	0.98919
1536.24480	0.98930
1534.19100	0.98965
1532.13719	0.98967
1530.08339	0.98937
1528.02959	0.98940
1525.97578	0.98989
1523.92198	0.99014
1521.86818	0.98986
1519.81437	0.98976
1517.76057	0.98975
1515.70677	0.98941
1513.65297	0.98913
1511.59916	0.98887
1509.54536	0.98841
1507.49156	0.98846
1505.43775	0.98936
1503.38395	0.98953
1501.33015	0.98940
1499.27634	0.98947
1497.22254	0.98964
1495.16874	0.98988
1493.11493	0.99004
1491.06113	0.98994
1489.00733	0.98999
1486.95352	0.99004
1484.89972	0.98953
1482.84592	0.98896
1480.79211	0.98866
1478.73831	0.98843
1476.68451	0.98823
1474.63070	0.98810
1472.57690	0.98787
1470.52310	0.98749
1468.46929	0.98722
1466.41549	0.98707
1464.36169	0.98685
1462.30788	0.98651
1460.25408	0.98627
1458.20028	0.98626
1456.14648	0.98620
1454.09267	0.98591
1452.03887	0.98573
1449.98507	0.98561
1447.93126	0.98519
1445.87746	0.98464
1443.82366	0.98453
1441.76985	0.98453
1439.71605	0.98407
1437.66225	0.98330
1435.60844	0.98293
1433.55464	0.98309
1431.50084	0.98300
1429.44703	0.98247
1427.39323	0.98207
1425.33943	0.98220
1423.28562	0.98258
1421.23182	0.98274
1419.17802	0.98276
1417.12421	0.98312
1415.07041	0.98374
1413.01661	0.98424
1410.96280	0.98436
1408.90900	0.98424
1406.85520	0.98430
1404.80139	0.98469
1402.74759	0.98515
1400.69379	0.98546
1398.63999	0.98553
1396.58618	0.98537
1394.53238	0.98538
1392.47858	0.98554
1390.42477	0.98537
1388.37097	0.98487
1386.31717	0.98436
1384.26336	0.98410
1382.20956	0.98394
1380.15576	0.98362
1378.10195	0.98310
1376.04815	0.98253
1373.99435	0.98202
1371.94054	0.98157
1369.88674	0.98139
1367.83294	0.98140
1365.77913	0.98117
1363.72533	0.98096
1361.67153	0.98124
1359.61772	0.98164
1357.56392	0.98186
1355.51012	0.98201
1353.45631	0.98201
1351.40251	0.98200
1349.34871	0.98220
1347.29491	0.98240
1345.24110	0.98231
1343.18730	0.98206
1341.13350	0.98178
1339.07969	0.98138
1337.02589	0.98093
1334.97209	0.98041
1332.91828	0.97998
1330.86448	0.97996
1328.81068	0.98013
1326.75687	0.98011
1324.70307	0.97991
1322.64927	0.97953
1320.59546	0.97910
1318.54166	0.97879
1316.48786	0.97843
1314.43405	0.97802
1312.38025	0.97789
1310.32645	0.97821
1308.27264	0.97903
1306.21884	0.98008
1304.16504	0.98096
1302.11123	0.98157
1300.05743	0.98194
1298.00363	0.98239
1295.94982	0.98304
1293.89602	0.98326
1291.84222	0.98297
1289.78842	0.98281
1287.73461	0.98281
1285.68081	0.98274
1283.62701	0.98266
1281.57320	0.98241
1279.51940	0.98190
1277.46560	0.98159
1275.41179	0.98163
1273.35799	0.98167
1271.30419	0.98157
1269.25038	0.98146
1267.19658	0.98161
1265.14278	0.98190
1263.08897	0.98196
1261.03517	0.98195
1258.98137	0.98208
1256.92756	0.98236
1254.87376	0.98257
1252.81996	0.98225
1250.76615	0.98168
1248.71235	0.98155
1246.65855	0.98180
1244.60474	0.98199
1242.55094	0.98204
1240.49714	0.98216
1238.44334	0.98237
1236.38953	0.98251
1234.33573	0.98259
1232.28193	0.98275
1230.22812	0.98268
1228.17432	0.98222
1226.12052	0.98193
1224.06671	0.98177
1222.01291	0.98135
1219.95911	0.98109
1217.90530	0.98114
1215.85150	0.98094
1213.79770	0.98036
1211.74389	0.97951
1209.69009	0.97852
1207.63629	0.97763
1205.58248	0.97680
1203.52868	0.97580
1201.47488	0.97499
1199.42107	0.97503
1197.36727	0.97563
1195.31347	0.97583
1193.25966	0.97522
1191.20586	0.97431
1189.15206	0.97376
1187.09825	0.97366
1185.04445	0.97341
1182.99065	0.97268
1180.93685	0.97174
1178.88304	0.97047
1176.82924	0.96870
1174.77544	0.96669
1172.72163	0.96467
1170.66783	0.96254
1168.61403	0.96000
1166.56022	0.95724
1164.50642	0.95485
1162.45262	0.95351
1160.39881	0.95344
1158.34501	0.95391
1156.29121	0.95401
1154.23740	0.95389
1152.18360	0.95412
1150.12980	0.95442
1148.07599	0.95431
1146.02219	0.95426
1143.96839	0.95469
1141.91458	0.95494
1139.86078	0.95454
1137.80698	0.95358
1135.75317	0.95220
1133.69937	0.95092
1131.64557	0.95008
1129.59176	0.94907
1127.53796	0.94724
1125.48416	0.94495
1123.43036	0.94268
1121.37655	0.94048
1119.32275	0.93849
1117.26895	0.93656
1115.21514	0.93425
1113.16134	0.93168
1111.10754	0.92946
1109.05373	0.92781
1106.99993	0.92670
1104.94613	0.92595
1102.89232	0.92528
1100.83852	0.92478
1098.78472	0.92467
1096.73091	0.92475
1094.67711	0.92440
1092.62331	0.92361
1090.56950	0.92277
1088.51570	0.92201
1086.46190	0.92148
1084.40809	0.92119
1082.35429	0.92109
1080.30049	0.92094
1078.24668	0.92015
1076.19288	0.91873
1074.13908	0.91717
1072.08528	0.91554
1070.03147	0.91380
1067.97767	0.91166
1065.92387	0.90896
1063.87006	0.90610
1061.81626	0.90350
1059.76246	0.90148
1057.70865	0.89992
1055.65485	0.89873
1053.60105	0.89797
1051.54724	0.89731
1049.49344	0.89701
1047.43964	0.89734
1045.38583	0.89757
1043.33203	0.89736
1041.27823	0.89676
1039.22442	0.89571
1037.17062	0.89440
1035.11682	0.89300
1033.06301	0.89188
1031.00921	0.89140
1028.95541	0.89147
1026.90160	0.89177
1024.84780	0.89202
1022.79400	0.89240
1020.74019	0.89279
1018.68639	0.89286
1016.63259	0.89309
1014.57879	0.89383
1012.52498	0.89453
1010.47118	0.89478
1008.41738	0.89477
1006.36357	0.89483
1004.30977	0.89499
1002.25597	0.89496
1000.20216	0.89490
998.14836	0.89521
996.09456	0.89584
994.04075	0.89681
991.98695	0.89793
989.93315	0.89862
987.87934	0.89912
985.82554	0.89990
983.77174	0.90060
981.71793	0.90120
979.66413	0.90244
977.61033	0.90469
975.55652	0.90711
973.50272	0.90875
971.44892	0.91010
969.39511	0.91177
967.34131	0.91362
965.28751	0.91585
963.23371	0.91820
961.17990	0.91984
959.12610	0.92129
957.07230	0.92314
955.01849	0.92463
952.96469	0.92569
950.91089	0.92732
948.85708	0.92966
946.80328	0.93178
944.74948	0.93313
942.69567	0.93401
940.64187	0.93483
938.58807	0.93594
936.53426	0.93745
934.48046	0.93926
932.42666	0.94120
930.37285	0.94245
928.31905	0.94284
926.26525	0.94342
924.21144	0.94418
922.15764	0.94448
920.10384	0.94498
918.05003	0.94574
915.99623	0.94595
913.94243	0.94588
911.88862	0.94627
909.83482	0.94696
907.78102	0.94745
905.72722	0.94768
903.67341	0.94750
901.61961	0.94714
899.56581	0.94736
897.51200	0.94793
895.45820	0.94841
893.40440	0.94912
891.35059	0.94998
889.29679	0.95051
887.24299	0.95093
885.18918	0.95151
883.13538	0.95236
881.08158	0.95372
879.02777	0.95505
876.97397	0.95551
874.92017	0.95590
872.86636	0.95711
870.81256	0.95846
868.75876	0.95931
866.70495	0.95965
864.65115	0.95999
862.59735	0.96038
860.54354	0.96075
858.48974	0.96138
856.43594	0.96211
854.38213	0.96300
852.32833	0.96412
850.27453	0.96503
848.22073	0.96554
846.16692	0.96607
844.11312	0.96656
842.05932	0.96632
840.00551	0.96584
837.95171	0.96586
835.89791	0.96629
833.84410	0.96672
831.79030	0.96644
829.73650	0.96578
827.68269	0.96581
825.62889	0.96628
823.57509	0.96644
821.52128	0.96641
819.46748	0.96612
817.41368	0.96525
815.35987	0.96405
813.30607	0.96298
811.25227	0.96226
809.19846	0.96088
807.14466	0.95843
805.09086	0.95587
803.03705	0.95331
800.98325	0.95084
798.92945	0.94875
796.87565	0.94682
794.82184	0.94534
792.76804	0.94543
790.71424	0.94656
788.66043	0.94651
786.60663	0.94539
784.55283	0.94486
782.49902	0.94456
780.44522	0.94330
778.39142	0.94135
776.33761	0.94026
774.28381	0.94087
772.23001	0.94237
770.17620	0.94358
768.12240	0.94443
766.06860	0.94562
764.01479	0.94716
761.96099	0.94812
759.90719	0.94827
757.85338	0.94875
755.79958	0.95038
753.74578	0.95223
751.69197	0.95307
749.63817	0.95330
747.58437	0.95341
745.53056	0.95333
743.47676	0.95339
741.42296	0.95335
739.36916	0.95286
737.31535	0.95238
735.26155	0.95238
733.20775	0.95278
731.15394	0.95238
729.10014	0.95044
727.04634	0.94851
724.99253	0.94832
722.93873	0.94889
720.88493	0.94869
718.83112	0.94868
716.77732	0.94914
714.72352	0.94893
712.66971	0.94862
710.61591	0.94878
708.56211	0.94857
706.50830	0.94756
704.45450	0.94654
702.40070	0.94613
700.34689	0.94548
698.29309	0.94343
696.23929	0.94090
694.18548	0.93979
692.13168	0.94023
690.07788	0.94114
688.02408	0.94212
685.97027	0.94289
683.91647	0.94284
681.86267	0.94215
679.80886	0.94207
677.75506	0.94250
675.70126	0.94177
673.64745	0.93969
671.59365	0.93816
669.53985	0.93803
667.48604	0.93815
665.43224	0.93741
663.37844	0.93646
661.32463	0.93643
659.27083	0.93789
657.21703	0.93923
655.16322	0.93969
653.10942	0.94009
651.05562	0.93993
649.00181	0.93839
646.94801	0.93690
644.89421	0.93728
642.84040	0.93832
640.78660	0.93827
638.73280	0.93761
636.67899	0.93694
634.62519	0.93655
632.57139	0.93640
630.51759	0.93580
628.46378	0.93502
626.40998	0.93477
624.35618	0.93436
622.30237	0.93336
620.24857	0.93258
618.19477	0.93189
616.14096	0.93093
614.08716	0.93032
612.03336	0.92965
609.97955	0.92797
607.92575	0.92643
605.87195	0.92699
603.81814	0.92790
601.76434	0.92648
599.71054	0.92514
597.65673	0.92567
595.60293	0.92545
593.54913	0.92312
591.49532	0.92079
589.44152	0.92133
587.38772	0.92277
585.33391	0.92131
583.28011	0.91895
581.22631	0.91870
579.17250	0.91972
577.11870	0.92093
575.06490	0.92141
573.01110	0.92086
570.95729	0.91999
568.90349	0.91919
566.84969	0.91875
564.79588	0.91818
562.74208	0.91687
560.68828	0.91590
558.63447	0.91577
556.58067	0.91556
554.52687	0.91517
552.47306	0.91474
550.41926	0.91397
548.36546	0.91376
546.31165	0.91459
544.25785	0.91396
542.20405	0.91119
540.15024	0.90916
538.09644	0.90861
536.04264	0.90790
533.98883	0.90656
531.93503	0.90536
529.88123	0.90514
527.82742	0.90573
525.77362	0.90554
523.71982	0.90340
521.66602	0.90046
519.61221	0.89923
517.55841	0.90015
515.50461	0.90182
513.45080	0.90311
511.39700	0.90227
509.34320	0.90127
507.28939	0.90239
505.23559	0.90270
503.18179	0.90100
501.12798	0.89932
499.07418	0.89866
497.02038	0.89850
494.96657	0.89860
492.91277	0.89838
490.85897	0.89686
488.80516	0.89486
486.75136	0.89378
484.69756	0.89208
482.64375	0.88848
480.58995	0.88627
478.53615	0.88661
476.48234	0.88562
474.42854	0.88243
472.37474	0.88135
470.32093	0.88083
468.26713	0.87691
466.21333	0.87415
464.15953	0.87552
462.10572	0.87648
460.05192	0.87430
457.99812	0.87215
455.94431	0.87263
453.89051	0.87263
451.83671	0.86974
449.78290	0.86806
447.72910	0.86898
445.67530	0.87016
443.62149	0.87471
441.56769	0.88003
439.51389	0.87829
437.46008	0.87182
435.40628	0.86647
433.35248	0.86461
431.29867	0.86665
429.24487	0.87047
427.19107	0.87185
425.13726	0.87069
423.08346	0.87081
421.02966	0.87075
418.97585	0.86708
416.92205	0.86755
414.86825	0.87392
412.81445	0.88040
410.76064	0.88504
408.70684	0.88905
406.65304	0.89226
404.59923	0.89173
402.54543	0.88620
400.49163	0.87745
398.43782	0.87091
