3996.70104	0.98883
3994.64724	0.98866
3992.59344	0.98837
3990.53964	0.98809
3988.48583	0.98786
3986.43203	0.98769
3984.37823	0.98772
3982.32442	0.98776
3980.27062	0.98763
3978.21682	0.98788
3976.16301	0.98845
3974.10921	0.98879
3972.05541	0.98908
3970.00160	0.98933
3967.94780	0.98928
3965.89400	0.98896
3963.84019	0.98846
3961.78639	0.98821
3959.73259	0.98830
3957.67878	0.98837
3955.62498	0.98844
3953.57118	0.98833
3951.51737	0.98804
3949.46357	0.98808
3947.40977	0.98809
3945.35596	0.98797
3943.30216	0.98847
3941.24836	0.98892
3939.19455	0.98843
3937.14075	0.98800
3935.08695	0.98827
3933.03315	0.98863
3930.97934	0.98872
3928.92554	0.98848
3926.87174	0.98801
3924.81793	0.98796
3922.76413	0.98822
3920.71033	0.98810
3918.65652	0.98780
3916.60272	0.98792
3914.54892	0.98831
3912.49511	0.98827
3910.44131	0.98786
3908.38751	0.98762
3906.33370	0.98773
3904.27990	0.98828
3902.22610	0.98855
3900.17229	0.98813
3898.11849	0.98800
3896.06469	0.98815
3894.01088	0.98813
3891.95708	0.98810
3889.90328	0.98802
3887.84947	0.98764
3885.79567	0.98733
3883.74187	0.98774
3881.68807	0.98853
3879.63426	0.98892
3877.58046	0.98865
3875.52666	0.98841
3873.47285	0.98821
3871.41905	0.98753
3869.36525	0.98704
3867.31144	0.98727
3865.25764	0.98791
3863.20384	0.98863
3861.15003	0.98860
3859.09623	0.98809
3857.04243	0.98723
3854.98862	0.98589
3852.93482	0.98584
3850.88102	0.98735
3848.82721	0.98795
3846.77341	0.98785
3844.71961	0.98805
3842.66580	0.98858
3840.61200	0.98822
3838.55820	0.98740
3836.50439	0.98766
3834.45059	0.98818
3832.39679	0.98829
3830.34298	0.98817
3828.28918	0.98797
3826.23538	0.98819
3824.18158	0.98894
3822.12777	0.98953
3820.07397	0.98932
3818.02017	0.98891
3815.96636	0.98866
3813.91256	0.98871
3811.85876	0.98924
3809.80495	0.98944
3807.75115	0.98894
3805.69735	0.98870
3803.64354	0.98935
3801.58974	0.99016
3799.53594	0.99007
3797.48213	0.98918
3795.42833	0.98810
3793.37453	0.98779
3791.32072	0.98813
3789.26692	0.98837
3787.21312	0.98825
3785.15931	0.98783
3783.10551	0.98790
3781.05171	0.98840
3778.99790	0.98802
3776.94410	0.98719
3774.89030	0.98720
3772.83650	0.98747
3770.78269	0.98758
3768.72889	0.98795
3766.67509	0.98832
3764.62128	0.98857
3762.56748	0.98857
3760.51368	0.98796
3758.45987	0.98759
3756.40607	0.98802
3754.35227	0.98793
3752.29846	0.98719
3750.24466	0.98672
3748.19086	0.98745
3746.13705	0.98878
3744.08325	0.98902
3742.02945	0.98795
3739.97564	0.98711
3737.92184	0.98637
3735.86804	0.98528
3733.81423	0.98470
3731.76043	0.98526
3729.70663	0.98614
3727.65282	0.98624
3725.59902	0.98486
3723.54522	0.98321
3721.49141	0.98234
3719.43761	0.98141
3717.38381	0.97990
3715.33001	0.97772
3713.27620	0.97447
3711.22240	0.96988
3709.16860	0.96508
3707.11479	0.96067
3705.06099	0.95619
3703.00719	0.95104
3700.95338	0.94550
3698.89958	0.94174
3696.84578	0.94062
3694.79197	0.94147
3692.73817	0.94367
3690.68437	0.94709
3688.63056	0.95113
3686.57676	0.95386
3684.52296	0.95510
3682.46915	0.95573
3680.41535	0.95609
3678.36155	0.95592
3676.30774	0.95505
3674.25394	0.95426
3672.20014	0.95433
3670.14633	0.95435
3668.09253	0.95303
3666.03873	0.95103
3663.98492	0.94939
3661.93112	0.94841
3659.87732	0.94780
3657.82352	0.94709
3655.76971	0.94574
3653.71591	0.94464
3651.66211	0.94447
3649.60830	0.94399
3647.55450	0.94290
3645.50070	0.94209
3643.44689	0.94093
3641.39309	0.93980
3639.33929	0.93929
3637.28548	0.93889
3635.23168	0.93812
3633.17788	0.93687
3631.12407	0.93549
3629.07027	0.93361
3627.01647	0.93115
3624.96266	0.92901
3622.90886	0.92682
3620.85506	0.92564
3618.80125	0.92685
3616.74745	0.92884
3614.69365	0.93000
3612.63984	0.93097
3610.58604	0.93192
3608.53224	0.93268
3606.47844	0.93274
3604.42463	0.93217
3602.37083	0.93154
3600.31703	0.93100
3598.26322	0.93086
3596.20942	0.93081
3594.15562	0.93021
3592.10181	0.92973
3590.04801	0.92977
3587.99421	0.92998
3585.94040	0.93042
3583.88660	0.93032
3581.83280	0.92950
3579.77899	0.92884
3577.72519	0.92841
3575.67139	0.92781
3573.61758	0.92684
3571.56378	0.92575
3569.50998	0.92496
3567.45617	0.92402
3565.40237	0.92265
3563.34857	0.92196
3561.29476	0.92152
3559.24096	0.92065
3557.18716	0.91984
3555.13335	0.91898
3553.07955	0.91795
3551.02575	0.91741
3548.97195	0.91700
3546.91814	0.91581
3544.86434	0.91438
3542.81054	0.91378
3540.75673	0.91374
3538.70293	0.91366
3536.64913	0.91359
3534.59532	0.91342
3532.54152	0.91261
3530.48772	0.91161
3528.43391	0.91119
3526.38011	0.91132
3524.32631	0.91198
3522.27250	0.91296
3520.21870	0.91366
3518.16490	0.91373
3516.11109	0.91329
3514.05729	0.91285
3512.00349	0.91299
3509.94968	0.91375
3507.89588	0.91430
3505.84208	0.91403
3503.78827	0.91350
3501.73447	0.91347
3499.68067	0.91371
3497.62687	0.91355
3495.57306	0.91276
3493.51926	0.91207
3491.46546	0.91190
3489.41165	0.91171
3487.35785	0.91130
3485.30405	0.91078
3483.25024	0.91022
3481.19644	0.90958
3479.14264	0.90904
3477.08883	0.90919
3475.03503	0.90956
3472.98123	0.90929
3470.92742	0.90860
3468.87362	0.90782
3466.81982	0.90698
3464.76601	0.90622
3462.71221	0.90569
3460.65841	0.90529
3458.60460	0.90492
3456.55080	0.90458
3454.49700	0.90404
3452.44319	0.90327
3450.38939	0.90264
3448.33559	0.90228
3446.28178	0.90199
3444.22798	0.90142
3442.17418	0.90055
3440.12038	0.89978
3438.06657	0.89915
3436.01277	0.89823
3433.95897	0.89718
3431.90516	0.89661
3429.85136	0.89636
3427.79756	0.89607
3425.74375	0.89594
3423.68995	0.89566
3421.63615	0.89478
3419.58234	0.89320
3417.52854	0.89149
3415.47474	0.89055
3413.42093	0.89056
3411.36713	0.89062
3409.31333	0.89010
3407.25952	0.88923
3405.20572	0.88832
3403.15192	0.88764
3401.09811	0.88718
3399.04431	0.88688
3396.99051	0.88684
3394.93670	0.88722
3392.88290	0.88779
3390.82910	0.88803
3388.77529	0.88827
3386.72149	0.88871
3384.66769	0.88877
3382.61389	0.88868
3380.56008	0.88919
3378.50628	0.89005
3376.45248	0.89037
3374.39867	0.89017
3372.34487	0.89057
3370.29107	0.89190
3368.23726	0.89279
3366.18346	0.89284
3364.12966	0.89289
3362.07585	0.89288
3360.02205	0.89257
3357.96825	0.89232
3355.91444	0.89227
3353.86064	0.89252
3351.80684	0.89303
3349.75303	0.89368
3347.69923	0.89456
3345.64543	0.89519
3343.59162	0.89523
3341.53782	0.89525
3339.48402	0.89536
3337.43021	0.89522
3335.37641	0.89526
3333.32261	0.89594
3331.26881	0.89696
3329.21500	0.89747
3327.16120	0.89725
3325.10740	0.89732
3323.05359	0.89770
3320.99979	0.89763
3318.94599	0.89761
3316.89218	0.89797
3314.83838	0.89854
3312.78458	0.89937
3310.73077	0.89983
3308.67697	0.89966
3306.62317	0.89978
3304.56936	0.90022
3302.51556	0.90069
3300.46176	0.90124
3298.40795	0.90140
3296.35415	0.90106
3294.30035	0.90095
3292.24654	0.90152
3290.19274	0.90209
3288.13894	0.90205
3286.08513	0.90201
3284.03133	0.90235
3281.97753	0.90261
3279.92372	0.90290
3277.86992	0.90371
3275.81612	0.90442
3273.76232	0.90480
3271.70851	0.90545
3269.65471	0.90604
3267.60091	0.90614
3265.54710	0.90628
3263.49330	0.90665
3261.43950	0.90692
3259.38569	0.90719
3257.33189	0.90773
3255.27809	0.90827
3253.22428	0.90863
3251.17048	0.90912
3249.11668	0.90963
3247.06287	0.90976
3245.00907	0.90991
3242.95527	0.91029
3240.90146	0.91067
3238.84766	0.91126
3236.79386	0.91200
3234.74005	0.91274
3232.68625	0.91343
3230.63245	0.91375
3228.57864	0.91377
3226.52484	0.91397
3224.47104	0.91461
3222.41724	0.91555
3220.36343	0.91655
3218.30963	0.91725
3216.25583	0.91761
3214.20202	0.91797
3212.14822	0.91829
3210.09442	0.91880
3208.04061	0.91963
3205.98681	0.92031
3203.93301	0.92085
3201.87920	0.92147
3199.82540	0.92200
3197.77160	0.92261
3195.71779	0.92354
3193.66399	0.92440
3191.61019	0.92493
3189.55638	0.92527
3187.50258	0.92571
3185.44878	0.92659
3183.39497	0.92769
3181.34117	0.92819
3179.28737	0.92810
3177.23356	0.92842
3175.17976	0.92943
3173.12596	0.93066
3171.07215	0.93152
3169.01835	0.93168
3166.96455	0.93181
3164.91075	0.93254
3162.85694	0.93364
3160.80314	0.93467
3158.74934	0.93539
3156.69553	0.93586
3154.64173	0.93627
3152.58793	0.93660
3150.53412	0.93671
3148.48032	0.93697
3146.42652	0.93767
3144.37271	0.93835
3142.31891	0.93907
3140.26511	0.93978
3138.21130	0.94016
3136.15750	0.94090
3134.10370	0.94215
3132.04989	0.94303
3129.99609	0.94323
3127.94229	0.94336
3125.88848	0.94366
3123.83468	0.94374
3121.78088	0.94412
3119.72707	0.94477
3117.67327	0.94527
3115.61947	0.94608
3113.56566	0.94680
3111.51186	0.94678
3109.45806	0.94670
3107.40426	0.94712
3105.35045	0.94774
3103.29665	0.94807
3101.24285	0.94812
3099.18904	0.94834
3097.13524	0.94893
3095.08144	0.94961
3093.02763	0.95017
3090.97383	0.95032
3088.92003	0.95023
3086.86622	0.95055
3084.81242	0.95121
3082.75862	0.95157
3080.70481	0.95159
3078.65101	0.95170
3076.59721	0.95239
3074.54340	0.95326
3072.48960	0.95361
3070.43580	0.95390
3068.38199	0.95457
3066.32819	0.95504
3064.27439	0.95508
3062.22058	0.95502
3060.16678	0.95510
3058.11298	0.95542
3056.05918	0.95605
3054.00537	0.95663
3051.95157	0.95668
3049.89777	0.95647
3047.84396	0.95677
3045.79016	0.95738
3043.73636	0.95779
3041.68255	0.95830
3039.62875	0.95886
3037.57495	0.95901
3035.52114	0.95883
3033.46734	0.95871
3031.41354	0.95887
3029.35973	0.95920
3027.30593	0.95971
3025.25213	0.96035
3023.19832	0.96058
3021.14452	0.96042
3019.09072	0.96058
3017.03691	0.96102
3014.98311	0.96124
3012.92931	0.96146
3010.87550	0.96179
3008.82170	0.96193
3006.76790	0.96193
3004.71409	0.96211
3002.66029	0.96231
3000.60649	0.96226
2998.55269	0.96224
2996.49888	0.96250
2994.44508	0.96276
2992.39128	0.96256
2990.33747	0.96200
2988.28367	0.96138
2986.22987	0.96080
2984.17606	0.96035
2982.12226	0.95995
2980.06846	0.95956
2978.01465	0.95940
2975.96085	0.95936
2973.90705	0.95887
2971.85324	0.95773
2969.79944	0.95630
2967.74564	0.95480
2965.69183	0.95306
2963.63803	0.95121
2961.58423	0.94985
2959.53042	0.94889
2957.47662	0.94741
2955.42282	0.94497
2953.36901	0.94221
2951.31521	0.93986
2949.26141	0.93760
2947.20761	0.93437
2945.15380	0.92950
2943.10000	0.92299
2941.04620	0.91468
2938.99239	0.90447
2936.93859	0.89268
2934.88479	0.87901
2932.83098	0.86287
2930.77718	0.84386
2928.72338	0.82156
2926.66957	0.79546
2924.61577	0.76437
2922.56197	0.72817
2920.50816	0.68982
2918.45436	0.65423
2916.40056	0.62846
2914.34675	0.62052
2912.29295	0.63229
2910.23915	0.65691
2908.18534	0.68524
2906.13154	0.71130
2904.07774	0.73292
2902.02393	0.75025
2899.97013	0.76425
2897.91633	0.77616
2895.86252	0.78725
2893.80872	0.79837
2891.75492	0.80973
2889.70112	0.82092
2887.64731	0.83192
2885.59351	0.84328
2883.53971	0.85504
2881.48590	0.86677
2879.43210	0.87802
2877.37830	0.88846
2875.32449	0.89778
2873.27069	0.90538
2871.21689	0.91050
2869.16308	0.91304
2867.10928	0.91302
2865.05548	0.90985
2863.00167	0.90292
2860.94787	0.89091
2858.89407	0.87154
2856.84026	0.84211
2854.78646	0.80015
2852.73266	0.74619
2850.67885	0.68999
2848.62505	0.65263
2846.57125	0.65100
2844.51744	0.68161
2842.46364	0.72750
2840.40984	0.77358
2838.35603	0.81188
2836.30223	0.84101
2834.24843	0.86307
2832.19463	0.88013
2830.14082	0.89365
2828.08702	0.90443
2826.03322	0.91288
2823.97941	0.91965
2821.92561	0.92540
2819.87181	0.93056
2817.81800	0.93507
2815.76420	0.93861
2813.71040	0.94153
2811.65659	0.94430
2809.60279	0.94684
2807.54899	0.94894
2805.49518	0.95066
2803.44138	0.95225
2801.38758	0.95392
2799.33377	0.95548
2797.27997	0.95679
2795.22617	0.95815
2793.17236	0.95947
2791.11856	0.96050
2789.06476	0.96151
2787.01095	0.96270
2784.95715	0.96390
2782.90335	0.96483
2780.84955	0.96536
2778.79574	0.96577
2776.74194	0.96663
2774.68814	0.96777
2772.63433	0.96857
2770.58053	0.96896
2768.52673	0.96931
2766.47292	0.96975
2764.41912	0.97012
2762.36532	0.97047
2760.31151	0.97105
2758.25771	0.97167
2756.20391	0.97207
2754.15010	0.97213
2752.09630	0.97206
2750.04250	0.97224
2747.98869	0.97247
2745.93489	0.97263
2743.88109	0.97292
2741.82728	0.97309
2739.77348	0.97322
2737.71968	0.97354
2735.66587	0.97384
2733.61207	0.97404
2731.55827	0.97403
2729.50446	0.97410
2727.45066	0.97462
2725.39686	0.97518
2723.34306	0.97546
2721.28925	0.97560
2719.23545	0.97577
2717.18165	0.97603
2715.12784	0.97609
2713.07404	0.97602
2711.02024	0.97619
2708.96643	0.97626
2706.91263	0.97613
2704.85883	0.97614
2702.80502	0.97638
2700.75122	0.97671
2698.69742	0.97695
2696.64361	0.97723
2694.58981	0.97747
2692.53601	0.97747
2690.48220	0.97757
2688.42840	0.97780
2686.37460	0.97796
2684.32079	0.97822
2682.26699	0.97859
2680.21319	0.97865
2678.15938	0.97820
2676.10558	0.97776
2674.05178	0.97762
2671.99797	0.97761
2669.94417	0.97759
2667.89037	0.97742
2665.83657	0.97724
2663.78276	0.97714
2661.72896	0.97705
2659.67516	0.97691
2657.62135	0.97697
2655.56755	0.97726
2653.51375	0.97732
2651.45994	0.97710
2649.40614	0.97702
2647.35234	0.97715
2645.29853	0.97709
2643.24473	0.97679
2641.19093	0.97645
2639.13712	0.97625
2637.08332	0.97649
2635.02952	0.97705
2632.97571	0.97746
2630.92191	0.97766
2628.86811	0.97791
2626.81430	0.97846
2624.76050	0.97904
2622.70670	0.97936
2620.65289	0.97971
2618.59909	0.98011
2616.54529	0.98052
2614.49149	0.98086
2612.43768	0.98091
2610.38388	0.98080
2608.33008	0.98068
2606.27627	0.98078
2604.22247	0.98114
2602.16867	0.98135
2600.11486	0.98160
2598.06106	0.98199
2596.00726	0.98214
2593.95345	0.98228
2591.89965	0.98232
2589.84585	0.98216
2587.79204	0.98259
2585.73824	0.98353
2583.68444	0.98413
2581.63063	0.98440
2579.57683	0.98465
2577.52303	0.98454
2575.46922	0.98394
2573.41542	0.98337
2571.36162	0.98349
2569.30781	0.98416
2567.25401	0.98446
2565.20021	0.98418
2563.14640	0.98422
2561.09260	0.98463
2559.03880	0.98459
2556.98500	0.98441
2554.93119	0.98463
2552.87739	0.98494
2550.82359	0.98468
2548.76978	0.98372
2546.71598	0.98347
2544.66218	0.98462
2542.60837	0.98577
2540.55457	0.98612
2538.50077	0.98612
2536.44696	0.98622
2534.39316	0.98647
2532.33936	0.98638
2530.28555	0.98576
2528.23175	0.98503
2526.17795	0.98448
2524.12414	0.98432
2522.07034	0.98469
2520.01654	0.98510
2517.96273	0.98525
2515.90893	0.98532
2513.85513	0.98536
2511.80132	0.98547
2509.74752	0.98602
2507.69372	0.98687
2505.63992	0.98736
2503.58611	0.98762
2501.53231	0.98767
2499.47851	0.98712
2497.42470	0.98661
2495.37090	0.98646
2493.31710	0.98622
2491.26329	0.98601
2489.20949	0.98611
2487.15569	0.98665
2485.10188	0.98728
2483.04808	0.98735
2480.99428	0.98728
2478.94047	0.98735
2476.88667	0.98695
2474.83287	0.98604
2472.77906	0.98537
2470.72526	0.98551
2468.67146	0.98608
2466.61765	0.98626
2464.56385	0.98603
2462.51005	0.98618
2460.45624	0.98681
2458.40244	0.98736
2456.34864	0.98750
2454.29483	0.98717
2452.24103	0.98638
2450.18723	0.98574
2448.13343	0.98605
2446.07962	0.98642
2444.02582	0.98619
2441.97202	0.98605
2439.91821	0.98613
2437.86441	0.98610
2435.81061	0.98647
2433.75680	0.98752
2431.70300	0.98824
2429.64920	0.98769
2427.59539	0.98628
2425.54159	0.98567
2423.48779	0.98639
2421.43398	0.98725
2419.38018	0.98755
2417.32638	0.98709
2415.27257	0.98658
2413.21877	0.98663
2411.16497	0.98660
2409.11116	0.98664
2407.05736	0.98681
2405.00356	0.98662
2402.94975	0.98681
2400.89595	0.98739
2398.84215	0.98728
2396.78834	0.98673
2394.73454	0.98670
2392.68074	0.98707
2390.62694	0.98722
2388.57313	0.98712
2386.51933	0.98694
2384.46553	0.98682
2382.41172	0.98716
2380.35792	0.98799
2378.30412	0.98841
2376.25031	0.98731
2374.19651	0.98552
2372.14271	0.98554
2370.08890	0.98729
2368.03510	0.98808
2365.98130	0.98751
2363.92749	0.98693
2361.87369	0.98659
2359.81989	0.98625
2357.76608	0.98660
2355.71228	0.98709
2353.65848	0.98590
2351.60467	0.98423
2349.55087	0.98384
2347.49707	0.98438
2345.44326	0.98545
2343.38946	0.98598
2341.33566	0.98480
2339.28186	0.98347
2337.22805	0.98342
2335.17425	0.98417
2333.12045	0.98499
2331.06664	0.98494
2329.01284	0.98418
2326.95904	0.98399
2324.90523	0.98363
2322.85143	0.98308
2320.79763	0.98373
2318.74382	0.98476
2316.69002	0.98545
2314.63622	0.98591
2312.58241	0.98592
2310.52861	0.98586
2308.47481	0.98571
2306.42100	0.98491
2304.36720	0.98420
2302.31340	0.98443
2300.25959	0.98504
2298.20579	0.98523
2296.15199	0.98505
2294.09818	0.98491
2292.04438	0.98449
2289.99058	0.98435
2287.93677	0.98539
2285.88297	0.98615
2283.82917	0.98558
2281.77537	0.98478
2279.72156	0.98445
2277.66776	0.98480
2275.61396	0.98565
2273.56015	0.98629
2271.50635	0.98641
2269.45255	0.98629
2267.39874	0.98604
2265.34494	0.98569
2263.29114	0.98602
2261.23733	0.98672
2259.18353	0.98632
2257.12973	0.98590
2255.07592	0.98670
2253.02212	0.98719
2250.96832	0.98718
2248.91451	0.98704
2246.86071	0.98634
2244.80691	0.98627
2242.75310	0.98767
2240.69930	0.98868
2238.64550	0.98748
2236.59169	0.98570
2234.53789	0.98541
2232.48409	0.98625
2230.43029	0.98701
2228.37648	0.98674
2226.32268	0.98599
2224.26888	0.98582
2222.21507	0.98601
2220.16127	0.98742
2218.10747	0.99015
2216.05366	0.99087
2213.99986	0.98904
2211.94606	0.98662
2209.89225	0.98479
2207.83845	0.98619
2205.78465	0.98965
2203.73084	0.99062
2201.67704	0.98867
2199.62324	0.98634
2197.56943	0.98617
2195.51563	0.98708
2193.46183	0.98662
2191.40802	0.98557
2189.35422	0.98494
2187.30042	0.98484
2185.24661	0.98529
2183.19281	0.98680
2181.13901	0.98903
2179.08520	0.98985
2177.03140	0.98921
2174.97760	0.98864
2172.92380	0.98869
2170.86999	0.98887
2168.81619	0.98786
2166.76239	0.98703
2164.70858	0.98863
2162.65478	0.98999
2160.60098	0.99140
2158.54717	0.99503
2156.49337	0.99678
2154.43957	0.99498
2152.38576	0.99244
2150.33196	0.99073
2148.27816	0.99019
2146.22435	0.99143
2144.17055	0.99237
2142.11675	0.99251
2140.06294	0.99292
2138.00914	0.99178
2135.95534	0.99039
2133.90153	0.98993
2131.84773	0.98831
2129.79393	0.98746
2127.74012	0.98832
2125.68632	0.98824
2123.63252	0.98754
2121.57871	0.98721
2119.52491	0.98690
2117.47111	0.98689
2115.41731	0.98695
2113.36350	0.98711
2111.30970	0.98812
2109.25590	0.98912
2107.20209	0.98858
2105.14829	0.98737
2103.09449	0.98720
2101.04068	0.98803
2098.98688	0.98916
2096.93308	0.99040
2094.87927	0.99061
2092.82547	0.98969
2090.77167	0.98944
2088.71786	0.98913
2086.66406	0.98749
2084.61026	0.98643
2082.55645	0.98703
2080.50265	0.98762
2078.44885	0.98779
2076.39504	0.98821
2074.34124	0.98805
2072.28744	0.98747
2070.23363	0.98840
2068.17983	0.99061
2066.12603	0.99153
2064.07223	0.99037
2062.01842	0.98915
2059.96462	0.98946
2057.91082	0.99075
2055.85701	0.99130
2053.80321	0.99026
2051.74941	0.98889
2049.69560	0.98780
2047.64180	0.98643
2045.58800	0.98727
2043.53419	0.99045
2041.48039	0.99070
2039.42659	0.98925
2037.37278	0.99066
2035.31898	0.99251
2033.26518	0.99168
2031.21137	0.98874
2029.15757	0.98637
2027.10377	0.98620
2025.04996	0.98745
2022.99616	0.98997
2020.94236	0.99246
2018.88855	0.99320
2016.83475	0.99243
2014.78095	0.99047
2012.72714	0.98911
2010.67334	0.98927
2008.61954	0.98977
2006.56574	0.99137
2004.51193	0.99339
2002.45813	0.99280
2000.40433	0.98991
1998.35052	0.98861
1996.29672	0.98933
1994.24292	0.98912
1992.18911	0.98940
1990.13531	0.99105
1988.08151	0.99094
1986.02770	0.98842
1983.97390	0.98653
1981.92010	0.98680
1979.86629	0.98652
1977.81249	0.98625
1975.75869	0.98745
1973.70488	0.98795
1971.65108	0.98957
1969.59728	0.99302
1967.54347	0.99579
1965.48967	0.99686
1963.43587	0.99612
1961.38206	0.99466
1959.32826	0.99225
1957.27446	0.98907
1955.22066	0.98846
1953.16685	0.98959
1951.11305	0.98880
1949.05925	0.98730
1947.00544	0.98750
1944.95164	0.98847
1942.89784	0.98902
1940.84403	0.98892
1938.79023	0.98830
1936.73643	0.98821
1934.68262	0.98870
1932.62882	0.98885
1930.57502	0.98854
1928.52121	0.98818
1926.46741	0.98806
1924.41361	0.98856
1922.35980	0.98964
1920.30600	0.99012
1918.25220	0.98944
1916.19839	0.98849
1914.14459	0.98804
1912.09079	0.98773
1910.03698	0.98715
1907.98318	0.98659
1905.92938	0.98675
1903.87557	0.98727
1901.82177	0.98729
1899.76797	0.98713
1897.71417	0.98730
1895.66036	0.98756
1893.60656	0.98753
1891.55276	0.98763
1889.49895	0.98834
1887.44515	0.98876
1885.39135	0.98858
1883.33754	0.98844
1881.28374	0.98832
1879.22994	0.98811
1877.17613	0.98789
1875.12233	0.98745
1873.06853	0.98675
1871.01472	0.98630
1868.96092	0.98679
1866.90712	0.98766
1864.85331	0.98771
1862.79951	0.98756
1860.74571	0.98798
1858.69190	0.98811
1856.63810	0.98754
1854.58430	0.98743
1852.53049	0.98803
1850.47669	0.98850
1848.42289	0.98810
1846.36908	0.98714
1844.31528	0.98657
1842.26148	0.98652
1840.20768	0.98650
1838.15387	0.98641
1836.10007	0.98642
1834.04627	0.98634
1831.99246	0.98592
1829.93866	0.98548
1827.88486	0.98546
1825.83105	0.98600
1823.77725	0.98674
1821.72345	0.98699
1819.66964	0.98652
1817.61584	0.98594
1815.56204	0.98585
1813.50823	0.98613
1811.45443	0.98636
1809.40063	0.98608
1807.34682	0.98557
1805.29302	0.98534
1803.23922	0.98518
1801.18541	0.98498
1799.13161	0.98485
1797.07781	0.98473
1795.02400	0.98461
1792.97020	0.98476
1790.91640	0.98518
1788.86260	0.98522
1786.80879	0.98473
1784.75499	0.98417
1782.70119	0.98358
1780.64738	0.98281
1778.59358	0.98256
1776.53978	0.98265
1774.48597	0.98226
1772.43217	0.98169
1770.37837	0.98180
1768.32456	0.98190
1766.27076	0.98155
1764.21696	0.98119
1762.16315	0.98077
1760.10935	0.98001
1758.05555	0.97894
1756.00174	0.97773
1753.94794	0.97683
1751.89414	0.97588
1749.84033	0.97463
1747.78653	0.97359
1745.73273	0.97252
1743.67892	0.97135
1741.62512	0.96995
1739.57132	0.96852
1737.51751	0.96781
1735.46371	0.96747
1733.40991	0.96685
1731.35611	0.96612
1729.30230	0.96506
1727.24850	0.96414
1725.19470	0.96395
1723.14089	0.96391
1721.08709	0.96388
1719.03329	0.96398
1716.97948	0.96325
1714.92568	0.96209
1712.87188	0.96172
1710.81807	0.96144
1708.76427	0.96086
1706.71047	0.96005
1704.65666	0.95930
1702.60286	0.95875
1700.54906	0.95738
1698.49525	0.95487
1696.44145	0.95230
1694.38765	0.94974
1692.33384	0.94779
1690.28004	0.94559
1688.22624	0.94308
1686.17243	0.94111
1684.11863	0.93801
1682.06483	0.93464
1680.01103	0.93318
1677.95722	0.93207
1675.90342	0.93004
1673.84962	0.92758
1671.79581	0.92593
1669.74201	0.92417
1667.68821	0.92214
1665.63440	0.92065
1663.58060	0.91886
1661.52680	0.91670
1659.47299	0.91526
1657.41919	0.91452
1655.36539	0.91385
1653.31158	0.91190
1651.25778	0.91011
1649.20398	0.90986
1647.15017	0.90982
1645.09637	0.90974
1643.04257	0.90974
1640.98876	0.90986
1638.93496	0.91005
1636.88116	0.90991
1634.82735	0.90961
1632.77355	0.91005
1630.71975	0.91076
1628.66594	0.91125
1626.61214	0.91148
1624.55834	0.91167
1622.50454	0.91221
1620.45073	0.91335
1618.39693	0.91486
1616.34313	0.91709
1614.28932	0.91970
1612.23552	0.92211
1610.18172	0.92442
1608.12791	0.92633
1606.07411	0.92782
1604.02031	0.92913
1601.96650	0.93038
1599.91270	0.93162
1597.85890	0.93274
1595.80509	0.93385
1593.75129	0.93521
1591.69749	0.93659
1589.64368	0.93794
1587.58988	0.93952
1585.53608	0.94094
1583.48227	0.94186
1581.42847	0.94243
1579.37467	0.94288
1577.32086	0.94360
1575.26706	0.94462
1573.21326	0.94516
1571.15945	0.94540
1569.10565	0.94593
1567.05185	0.94656
1564.99805	0.94690
1562.94424	0.94704
1560.89044	0.94708
1558.83664	0.94689
1556.78283	0.94688
1554.72903	0.94736
1552.67523	0.94788
1550.62142	0.94801
1548.56762	0.94786
1546.51382	0.94796
1544.46001	0.94799
1542.40621	0.94736
1540.35241	0.94755
1538.29860	0.95012
1536.24480	0.95207
1534.19100	0.95295
1532.13719	0.95359
1530.08339	0.95441
1528.02959	0.95522
1525.97578	0.95614
1523.92198	0.95732
1521.86818	0.95842
1519.81437	0.95918
1517.76057	0.95946
1515.70677	0.95951
1513.65297	0.95976
1511.59916	0.96028
1509.54536	0.96105
1507.49156	0.96207
1505.43775	0.96292
1503.38395	0.96329
1501.33015	0.96370
1499.27634	0.96410
1497.22254	0.96414
1495.16874	0.96386
1493.11493	0.96346
1491.06113	0.96265
1489.00733	0.96166
1486.95352	0.96062
1484.89972	0.95887
1482.84592	0.95615
1480.79211	0.95161
1478.73831	0.94203
1476.68451	0.91781
1474.63070	0.87062
1472.57690	0.82296
1470.52310	0.81802
1468.46929	0.83550
1466.41549	0.84597
1464.36169	0.84120
1462.30788	0.83864
1460.25408	0.85384
1458.20028	0.88239
1456.14648	0.90750
1454.09267	0.91783
1452.03887	0.92360
1449.98507	0.92775
1447.93126	0.93041
1445.87746	0.93226
1443.82366	0.93346
1441.76985	0.93445
1439.71605	0.93562
1437.66225	0.93692
1435.60844	0.93789
1433.55464	0.93853
1431.50084	0.93951
1429.44703	0.94096
1427.39323	0.94244
1425.33943	0.94359
1423.28562	0.94453
1421.23182	0.94516
1419.17802	0.94538
1417.12421	0.94554
1415.07041	0.94600
1413.01661	0.94653
1410.96280	0.94694
1408.90900	0.94720
1406.85520	0.94747
1404.80139	0.94776
1402.74759	0.94796
1400.69379	0.94844
1398.63999	0.94908
1396.58618	0.94931
1394.53238	0.94940
1392.47858	0.94992
1390.42477	0.95042
1388.37097	0.95034
1386.31717	0.94967
1384.26336	0.94888
1382.20956	0.94819
1380.15576	0.94776
1378.10195	0.94753
1376.04815	0.94718
1373.99435	0.94685
1371.94054	0.94665
1369.88674	0.94628
1367.83294	0.94598
1365.77913	0.94634
1363.72533	0.94725
1361.67153	0.94870
1359.61772	0.95015
1357.56392	0.95097
1355.51012	0.95128
1353.45631	0.95150
1351.40251	0.95200
1349.34871	0.95259
1347.29491	0.95280
1345.24110	0.95297
1343.18730	0.95367
1341.13350	0.95452
1339.07969	0.95485
1337.02589	0.95483
1334.97209	0.95481
1332.91828	0.95477
1330.86448	0.95466
1328.81068	0.95453
1326.75687	0.95446
1324.70307	0.95418
1322.64927	0.95346
1320.59546	0.95268
1318.54166	0.95216
1316.48786	0.95190
1314.43405	0.95170
1312.38025	0.95153
1310.32645	0.95148
1308.27264	0.95149
1306.21884	0.95150
1304.16504	0.95138
1302.11123	0.95124
1300.05743	0.95121
1298.00363	0.95115
1295.94982	0.95104
1293.89602	0.95102
1291.84222	0.95086
1289.78842	0.95032
1287.73461	0.94949
1285.68081	0.94866
1283.62701	0.94803
1281.57320	0.94763
1279.51940	0.94714
1277.46560	0.94627
1275.41179	0.94512
1273.35799	0.94412
1271.30419	0.94357
1269.25038	0.94328
1267.19658	0.94293
1265.14278	0.94224
1263.08897	0.94107
1261.03517	0.93996
1258.98137	0.93934
1256.92756	0.93895
1254.87376	0.93841
1252.81996	0.93760
1250.76615	0.93686
1248.71235	0.93644
1246.65855	0.93588
1244.60474	0.93488
1242.55094	0.93380
1240.49714	0.93303
1238.44334	0.93248
1236.38953	0.93187
1234.33573	0.93119
1232.28193	0.93037
1230.22812	0.92942
1228.17432	0.92890
1226.12052	0.92881
1224.06671	0.92856
1222.01291	0.92777
1219.95911	0.92661
1217.90530	0.92551
1215.85150	0.92447
1213.79770	0.92340
1211.74389	0.92238
1209.69009	0.92115
1207.63629	0.91956
1205.58248	0.91785
1203.52868	0.91615
1201.47488	0.91427
1199.42107	0.91217
1197.36727	0.91016
1195.31347	0.90820
1193.25966	0.90591
1191.20586	0.90340
1189.15206	0.90070
1187.09825	0.89744
1185.04445	0.89379
1182.99065	0.89017
1180.93685	0.88647
1178.88304	0.88223
1176.82924	0.87765
1174.77544	0.87333
1172.72163	0.86926
1170.66783	0.86499
1168.61403	0.86050
1166.56022	0.85631
1164.50642	0.85249
1162.45262	0.84873
1160.39881	0.84534
1158.34501	0.84262
1156.29121	0.83994
1154.23740	0.83672
1152.18360	0.83330
1150.12980	0.83032
1148.07599	0.82775
1146.02219	0.82499
1143.96839	0.82205
1141.91458	0.81918
1139.86078	0.81605
1137.80698	0.81268
1135.75317	0.80941
1133.69937	0.80588
1131.64557	0.80161
1129.59176	0.79673
1127.53796	0.79116
1125.48416	0.78448
1123.43036	0.77723
1121.37655	0.76998
1119.32275	0.76258
1117.26895	0.75504
1115.21514	0.74795
1113.16134	0.74189
1111.10754	0.73656
1109.05373	0.73162
1106.99993	0.72705
1104.94613	0.72269
1102.89232	0.71878
1100.83852	0.71553
1098.78472	0.71259
1096.73091	0.70993
1094.67711	0.70788
1092.62331	0.70621
1090.56950	0.70477
1088.51570	0.70358
1086.46190	0.70229
1084.40809	0.70062
1082.35429	0.69888
1080.30049	0.69717
1078.24668	0.69535
1076.19288	0.69323
1074.13908	0.69058
1072.08528	0.68731
1070.03147	0.68335
1067.97767	0.67889
1065.92387	0.67412
1063.87006	0.66898
1061.81626	0.66320
1059.76246	0.65668
1057.70865	0.64975
1055.65485	0.64245
1053.60105	0.63451
1051.54724	0.62598
1049.49344	0.61739
1047.43964	0.60879
1045.38583	0.59963
1043.33203	0.59042
1041.27823	0.58183
1039.22442	0.57367
1037.17062	0.56627
1035.11682	0.56023
1033.06301	0.55559
1031.00921	0.55252
1028.95541	0.55118
1026.90160	0.55132
1024.84780	0.55259
1022.79400	0.55423
1020.74019	0.55565
1018.68639	0.55664
1016.63259	0.55690
1014.57879	0.55665
1012.52498	0.55614
1010.47118	0.55574
1008.41738	0.55591
1006.36357	0.55712
1004.30977	0.56005
1002.25597	0.56514
1000.20216	0.57228
998.14836	0.58097
996.09456	0.59090
994.04075	0.60177
991.98695	0.61327
989.93315	0.62528
987.87934	0.63758
985.82554	0.65009
983.77174	0.66304
981.71793	0.67603
979.66413	0.68848
977.61033	0.70040
975.55652	0.71193
973.50272	0.72309
971.44892	0.73347
969.39511	0.74293
967.34131	0.75192
965.28751	0.76049
963.23371	0.76818
961.17990	0.77484
959.12610	0.78093
957.07230	0.78656
955.01849	0.79155
952.96469	0.79580
950.91089	0.79926
948.85708	0.80205
946.80328	0.80434
944.74948	0.80633
942.69567	0.80821
940.64187	0.80962
938.58807	0.81046
936.53426	0.81171
934.48046	0.81362
932.42666	0.81532
930.37285	0.81636
928.31905	0.81680
926.26525	0.81675
924.21144	0.81576
922.15764	0.81344
920.10384	0.81033
918.05003	0.80698
915.99623	0.80369
913.94243	0.80127
911.88862	0.80090
909.83482	0.80370
907.78102	0.80999
905.72722	0.81889
903.67341	0.82862
901.61961	0.83780
899.56581	0.84585
897.51200	0.85241
895.45820	0.85767
893.40440	0.86205
891.35059	0.86568
889.29679	0.86921
887.24299	0.87284
885.18918	0.87565
883.13538	0.87743
881.08158	0.87873
879.02777	0.87998
876.97397	0.88121
874.92017	0.88243
872.86636	0.88400
870.81256	0.88606
868.75876	0.88830
866.70495	0.89057
864.65115	0.89282
862.59735	0.89502
860.54354	0.89713
858.48974	0.89914
856.43594	0.90121
854.38213	0.90290
852.32833	0.90360
850.27453	0.90422
848.22073	0.90563
846.16692	0.90716
844.11312	0.90767
842.05932	0.90706
840.00551	0.90656
837.95171	0.90615
835.89791	0.90496
833.84410	0.90368
831.79030	0.90295
829.73650	0.90245
827.68269	0.90176
825.62889	0.90112
823.57509	0.90078
821.52128	0.90014
819.46748	0.89886
817.41368	0.89778
815.35987	0.89726
813.30607	0.89629
811.25227	0.89471
809.19846	0.89299
807.14466	0.89021
805.09086	0.88628
803.03705	0.88268
800.98325	0.87999
798.92945	0.87845
796.87565	0.87811
794.82184	0.87808
792.76804	0.87807
790.71424	0.87771
788.66043	0.87680
786.60663	0.87642
784.55283	0.87645
782.49902	0.87603
780.44522	0.87560
778.39142	0.87549
776.33761	0.87553
774.28381	0.87541
772.23001	0.87510
770.17620	0.87490
768.12240	0.87401
766.06860	0.87206
764.01479	0.87043
761.96099	0.86902
759.90719	0.86698
757.85338	0.86552
755.79958	0.86470
753.74578	0.86338
751.69197	0.86252
749.63817	0.86293
747.58437	0.86399
745.53056	0.86471
743.47676	0.86494
741.42296	0.86547
739.36916	0.86555
737.31535	0.86291
735.26155	0.85262
733.20775	0.82916
731.15394	0.80401
729.10014	0.79918
727.04634	0.80986
724.99253	0.81190
722.93873	0.79299
720.88493	0.75541
718.83112	0.71905
716.77732	0.71003
714.72352	0.73310
712.66971	0.76983
710.61591	0.79827
708.56211	0.81262
706.50830	0.81824
704.45450	0.81897
702.40070	0.81670
700.34689	0.81372
698.29309	0.81165
696.23929	0.81047
694.18548	0.81005
692.13168	0.81076
690.07788	0.81187
688.02408	0.81282
685.97027	0.81364
683.91647	0.81403
681.86267	0.81435
679.80886	0.81500
677.75506	0.81624
675.70126	0.81745
673.64745	0.81731
671.59365	0.81665
669.53985	0.81726
667.48604	0.82049
665.43224	0.82447
663.37844	0.82745
661.32463	0.82940
659.27083	0.83043
657.21703	0.83089
655.16322	0.83055
653.10942	0.82962
651.05562	0.82914
649.00181	0.82904
646.94801	0.82846
644.89421	0.82718
642.84040	0.82658
640.78660	0.82766
638.73280	0.82871
636.67899	0.82915
634.62519	0.82962
632.57139	0.82922
630.51759	0.82738
628.46378	0.82539
626.40998	0.82551
624.35618	0.82677
622.30237	0.82547
620.24857	0.82189
618.19477	0.81909
616.14096	0.81766
614.08716	0.81614
612.03336	0.81307
609.97955	0.80850
607.92575	0.80481
605.87195	0.80302
603.81814	0.80163
601.76434	0.79944
599.71054	0.79719
597.65673	0.79564
595.60293	0.79391
593.54913	0.79169
591.49532	0.78969
589.44152	0.78764
587.38772	0.78512
585.33391	0.78317
583.28011	0.78221
581.22631	0.78106
579.17250	0.77849
577.11870	0.77552
575.06490	0.77399
573.01110	0.77246
570.95729	0.76957
568.90349	0.76647
566.84969	0.76325
564.79588	0.75865
562.74208	0.75383
560.68828	0.75042
558.63447	0.74776
556.58067	0.74452
554.52687	0.73951
552.47306	0.73343
550.41926	0.72733
548.36546	0.72059
546.31165	0.71395
544.25785	0.70895
542.20405	0.70439
540.15024	0.69934
538.09644	0.69463
536.04264	0.69013
533.98883	0.68688
531.93503	0.68595
529.88123	0.68576
527.82742	0.68538
525.77362	0.68703
523.71982	0.69124
521.66602	0.69587
519.61221	0.70092
517.55841	0.70639
515.50461	0.71136
513.45080	0.71586
511.39700	0.72023
509.34320	0.72492
507.28939	0.72879
505.23559	0.73012
503.18179	0.73073
501.12798	0.73247
499.07418	0.73425
497.02038	0.73452
494.96657	0.73227
492.91277	0.72897
490.85897	0.72649
488.80516	0.72482
486.75136	0.72335
484.69756	0.71889
482.64375	0.70846
480.58995	0.69460
478.53615	0.68061
476.48234	0.66721
474.42854	0.65349
472.37474	0.63968
470.32093	0.62839
468.26713	0.61984
466.21333	0.61603
464.15953	0.61976
462.10572	0.62967
460.05192	0.64098
457.99812	0.64846
455.94431	0.65346
453.89051	0.66102
451.83671	0.67016
449.78290	0.67530
447.72910	0.67653
445.67530	0.67828
443.62149	0.68104
441.56769	0.68376
439.51389	0.68625
437.46008	0.68635
435.40628	0.68242
433.35248	0.67870
431.29867	0.67830
429.24487	0.68029
427.19107	0.68303
425.13726	0.68461
423.08346	0.68425
421.02966	0.68474
418.97585	0.69541
416.92205	0.71265
414.86825	0.72257
412.81445	0.72932
410.76064	0.73680
408.70684	0.74352
406.65304	0.74796
404.59923	0.75362
402.54543	0.76283
400.49163	0.77196
398.43782	0.77527
