3996.70104	0.95615
3994.64724	0.95653
3992.59344	0.95646
3990.53964	0.95636
3988.48583	0.95666
3986.43203	0.95657
3984.37823	0.95615
3982.32442	0.95602
3980.27062	0.95626
3978.21682	0.95685
3976.16301	0.95720
3974.10921	0.95686
3972.05541	0.95627
3970.00160	0.95594
3967.94780	0.95629
3965.89400	0.95689
3963.84019	0.95697
3961.78639	0.95670
3959.73259	0.95664
3957.67878	0.95683
3955.62498	0.95694
3953.57118	0.95683
3951.51737	0.95695
3949.46357	0.95732
3947.40977	0.95714
3945.35596	0.95623
3943.30216	0.95562
3941.24836	0.95605
3939.19455	0.95659
3937.14075	0.95667
3935.08695	0.95653
3933.03315	0.95635
3930.97934	0.95688
3928.92554	0.95787
3926.87174	0.95817
3924.81793	0.95783
3922.76413	0.95746
3920.71033	0.95725
3918.65652	0.95724
3916.60272	0.95739
3914.54892	0.95707
3912.49511	0.95640
3910.44131	0.95618
3908.38751	0.95645
3906.33370	0.95661
3904.27990	0.95633
3902.22610	0.95612
3900.17229	0.95648
3898.11849	0.95674
3896.06469	0.95644
3894.01088	0.95590
3891.95708	0.95552
3889.90328	0.95588
3887.84947	0.95643
3885.79567	0.95634
3883.74187	0.95642
3881.68807	0.95706
3879.63426	0.95718
3877.58046	0.95674
3875.52666	0.95650
3873.47285	0.95650
3871.41905	0.95631
3869.36525	0.95596
3867.31144	0.95589
3865.25764	0.95627
3863.20384	0.95676
3861.15003	0.95677
3859.09623	0.95673
3857.04243	0.95715
3854.98862	0.95773
3852.93482	0.95750
3850.88102	0.95697
3848.82721	0.95704
3846.77341	0.95702
3844.71961	0.95672
3842.66580	0.95653
3840.61200	0.95627
3838.55820	0.95592
3836.50439	0.95608
3834.45059	0.95645
3832.39679	0.95670
3830.34298	0.95705
3828.28918	0.95753
3826.23538	0.95780
3824.18158	0.95813
3822.12777	0.95870
3820.07397	0.95843
3818.02017	0.95732
3815.96636	0.95665
3813.91256	0.95652
3811.85876	0.95648
3809.80495	0.95666
3807.75115	0.95683
3805.69735	0.95658
3803.64354	0.95664
3801.58974	0.95721
3799.53594	0.95759
3797.48213	0.95755
3795.42833	0.95735
3793.37453	0.95716
3791.32072	0.95706
3789.26692	0.95729
3787.21312	0.95764
3785.15931	0.95779
3783.10551	0.95778
3781.05171	0.95742
3778.99790	0.95708
3776.94410	0.95714
3774.89030	0.95728
3772.83650	0.95726
3770.78269	0.95697
3768.72889	0.95663
3766.67509	0.95669
3764.62128	0.95706
3762.56748	0.95748
3760.51368	0.95779
3758.45987	0.95759
3756.40607	0.95724
3754.35227	0.95732
3752.29846	0.95786
3750.24466	0.95911
3748.19086	0.96025
3746.13705	0.96017
3744.08325	0.95889
3742.02945	0.95798
3739.97564	0.95792
3737.92184	0.95863
3735.86804	0.95973
3733.81423	0.95914
3731.76043	0.95790
3729.70663	0.95825
3727.65282	0.95894
3725.59902	0.95833
3723.54522	0.95751
3721.49141	0.95768
3719.43761	0.95767
3717.38381	0.95704
3715.33001	0.95619
3713.27620	0.95546
3711.22240	0.95539
3709.16860	0.95577
3707.11479	0.95568
3705.06099	0.95489
3703.00719	0.95371
3700.95338	0.95233
3698.89958	0.95107
3696.84578	0.95020
3694.79197	0.95043
3692.73817	0.95196
3690.68437	0.95318
3688.63056	0.95288
3686.57676	0.95231
3684.52296	0.95196
3682.46915	0.95160
3680.41535	0.95167
3678.36155	0.95245
3676.30774	0.95264
3674.25394	0.95106
3672.20014	0.95045
3670.14633	0.95111
3668.09253	0.95113
3666.03873	0.95090
3663.98492	0.95080
3661.93112	0.95048
3659.87732	0.95036
3657.82352	0.95051
3655.76971	0.94993
3653.71591	0.94889
3651.66211	0.94857
3649.60830	0.94927
3647.55450	0.95002
3645.50070	0.94949
3643.44689	0.94816
3641.39309	0.94672
3639.33929	0.94588
3637.28548	0.94566
3635.23168	0.94572
3633.17788	0.94611
3631.12407	0.94629
3629.07027	0.94554
3627.01647	0.94435
3624.96266	0.94341
3622.90886	0.94282
3620.85506	0.94291
3618.80125	0.94301
3616.74745	0.94283
3614.69365	0.94317
3612.63984	0.94399
3610.58604	0.94482
3608.53224	0.94514
3606.47844	0.94472
3604.42463	0.94439
3602.37083	0.94463
3600.31703	0.94502
3598.26322	0.94562
3596.20942	0.94614
3594.15562	0.94565
3592.10181	0.94475
3590.04801	0.94473
3587.99421	0.94522
3585.94040	0.94490
3583.88660	0.94444
3581.83280	0.94445
3579.77899	0.94434
3577.72519	0.94419
3575.67139	0.94410
3573.61758	0.94390
3571.56378	0.94385
3569.50998	0.94423
3567.45617	0.94463
3565.40237	0.94374
3563.34857	0.94272
3561.29476	0.94288
3559.24096	0.94300
3557.18716	0.94270
3555.13335	0.94269
3553.07955	0.94272
3551.02575	0.94285
3548.97195	0.94315
3546.91814	0.94279
3544.86434	0.94184
3542.81054	0.94161
3540.75673	0.94186
3538.70293	0.94163
3536.64913	0.94116
3534.59532	0.94094
3532.54152	0.94113
3530.48772	0.94137
3528.43391	0.94146
3526.38011	0.94169
3524.32631	0.94198
3522.27250	0.94188
3520.21870	0.94151
3518.16490	0.94146
3516.11109	0.94153
3514.05729	0.94128
3512.00349	0.94078
3509.94968	0.94059
3507.89588	0.94086
3505.84208	0.94094
3503.78827	0.94088
3501.73447	0.94118
3499.68067	0.94169
3497.62687	0.94178
3495.57306	0.94135
3493.51926	0.94076
3491.46546	0.94030
3489.41165	0.94021
3487.35785	0.94031
3485.30405	0.94042
3483.25024	0.94048
3481.19644	0.94065
3479.14264	0.94100
3477.08883	0.94059
3475.03503	0.93963
3472.98123	0.93931
3470.92742	0.93950
3468.87362	0.93983
3466.81982	0.94016
3464.76601	0.94018
3462.71221	0.93991
3460.65841	0.93970
3458.60460	0.93944
3456.55080	0.93884
3454.49700	0.93842
3452.44319	0.93867
3450.38939	0.93898
3448.33559	0.93854
3446.28178	0.93796
3444.22798	0.93790
3442.17418	0.93760
3440.12038	0.93695
3438.06657	0.93691
3436.01277	0.93728
3433.95897	0.93716
3431.90516	0.93699
3429.85136	0.93732
3427.79756	0.93743
3425.74375	0.93706
3423.68995	0.93705
3421.63615	0.93746
3419.58234	0.93752
3417.52854	0.93727
3415.47474	0.93717
3413.42093	0.93734
3411.36713	0.93725
3409.31333	0.93671
3407.25952	0.93630
3405.20572	0.93596
3403.15192	0.93559
3401.09811	0.93559
3399.04431	0.93583
3396.99051	0.93626
3394.93670	0.93686
3392.88290	0.93705
3390.82910	0.93671
3388.77529	0.93638
3386.72149	0.93648
3384.66769	0.93703
3382.61389	0.93735
3380.56008	0.93690
3378.50628	0.93633
3376.45248	0.93628
3374.39867	0.93636
3372.34487	0.93655
3370.29107	0.93677
3368.23726	0.93641
3366.18346	0.93592
3364.12966	0.93591
3362.07585	0.93605
3360.02205	0.93646
3357.96825	0.93736
3355.91444	0.93774
3353.86064	0.93721
3351.80684	0.93695
3349.75303	0.93729
3347.69923	0.93745
3345.64543	0.93732
3343.59162	0.93712
3341.53782	0.93696
3339.48402	0.93712
3337.43021	0.93726
3335.37641	0.93721
3333.32261	0.93747
3331.26881	0.93781
3329.21500	0.93774
3327.16120	0.93745
3325.10740	0.93713
3323.05359	0.93714
3320.99979	0.93765
3318.94599	0.93802
3316.89218	0.93789
3314.83838	0.93765
3312.78458	0.93746
3310.73077	0.93738
3308.67697	0.93788
3306.62317	0.93846
3304.56936	0.93822
3302.51556	0.93758
3300.46176	0.93737
3298.40795	0.93762
3296.35415	0.93799
3294.30035	0.93852
3292.24654	0.93892
3290.19274	0.93880
3288.13894	0.93872
3286.08513	0.93897
3284.03133	0.93898
3281.97753	0.93870
3279.92372	0.93896
3277.86992	0.93967
3275.81612	0.93964
3273.76232	0.93892
3271.70851	0.93887
3269.65471	0.93952
3267.60091	0.93993
3265.54710	0.93983
3263.49330	0.93948
3261.43950	0.93952
3259.38569	0.93972
3257.33189	0.93931
3255.27809	0.93904
3253.22428	0.93940
3251.17048	0.93976
3249.11668	0.94016
3247.06287	0.94069
3245.00907	0.94091
3242.95527	0.94073
3240.90146	0.94059
3238.84766	0.94056
3236.79386	0.94038
3234.74005	0.94013
3232.68625	0.94034
3230.63245	0.94089
3228.57864	0.94090
3226.52484	0.94033
3224.47104	0.94023
3222.41724	0.94076
3220.36343	0.94097
3218.30963	0.94083
3216.25583	0.94112
3214.20202	0.94175
3212.14822	0.94203
3210.09442	0.94190
3208.04061	0.94170
3205.98681	0.94176
3203.93301	0.94212
3201.87920	0.94245
3199.82540	0.94275
3197.77160	0.94300
3195.71779	0.94288
3193.66399	0.94270
3191.61019	0.94303
3189.55638	0.94363
3187.50258	0.94378
3185.44878	0.94357
3183.39497	0.94352
3181.34117	0.94371
3179.28737	0.94399
3177.23356	0.94417
3175.17976	0.94416
3173.12596	0.94406
3171.07215	0.94401
3169.01835	0.94394
3166.96455	0.94390
3164.91075	0.94399
3162.85694	0.94421
3160.80314	0.94463
3158.74934	0.94504
3156.69553	0.94529
3154.64173	0.94533
3152.58793	0.94515
3150.53412	0.94519
3148.48032	0.94568
3146.42652	0.94592
3144.37271	0.94543
3142.31891	0.94491
3140.26511	0.94518
3138.21130	0.94612
3136.15750	0.94649
3134.10370	0.94583
3132.04989	0.94531
3129.99609	0.94544
3127.94229	0.94578
3125.88848	0.94615
3123.83468	0.94643
3121.78088	0.94645
3119.72707	0.94653
3117.67327	0.94692
3115.61947	0.94694
3113.56566	0.94626
3111.51186	0.94575
3109.45806	0.94577
3107.40426	0.94580
3105.35045	0.94595
3103.29665	0.94648
3101.24285	0.94693
3099.18904	0.94682
3097.13524	0.94634
3095.08144	0.94567
3093.02763	0.94519
3090.97383	0.94508
3088.92003	0.94444
3086.86622	0.94268
3084.81242	0.94091
3082.75862	0.94016
3080.70481	0.94041
3078.65101	0.94118
3076.59721	0.94192
3074.54340	0.94229
3072.48960	0.94240
3070.43580	0.94232
3068.38199	0.94168
3066.32819	0.94049
3064.27439	0.93922
3062.22058	0.93803
3060.16678	0.93707
3058.11298	0.93701
3056.05918	0.93815
3054.00537	0.93983
3051.95157	0.94127
3049.89777	0.94252
3047.84396	0.94392
3045.79016	0.94480
3043.73636	0.94456
3041.68255	0.94388
3039.62875	0.94335
3037.57495	0.94260
3035.52114	0.94094
3033.46734	0.93823
3031.41354	0.93473
3029.35973	0.93036
3027.30593	0.92592
3025.25213	0.92333
3023.19832	0.92394
3021.14452	0.92741
3019.09072	0.93209
3017.03691	0.93616
3014.98311	0.93904
3012.92931	0.94126
3010.87550	0.94283
3008.82170	0.94336
3006.76790	0.94346
3004.71409	0.94348
3002.66029	0.94323
3000.60649	0.94332
2998.55269	0.94407
2996.49888	0.94486
2994.44508	0.94569
2992.39128	0.94650
2990.33747	0.94694
2988.28367	0.94736
2986.22987	0.94792
2984.17606	0.94828
2982.12226	0.94847
2980.06846	0.94870
2978.01465	0.94868
2975.96085	0.94836
2973.90705	0.94815
2971.85324	0.94773
2969.79944	0.94690
2967.74564	0.94629
2965.69183	0.94574
2963.63803	0.94488
2961.58423	0.94414
2959.53042	0.94365
2957.47662	0.94328
2955.42282	0.94295
2953.36901	0.94236
2951.31521	0.94142
2949.26141	0.94036
2947.20761	0.93939
2945.15380	0.93832
2943.10000	0.93698
2941.04620	0.93504
2938.99239	0.93224
2936.93859	0.92914
2934.88479	0.92621
2932.83098	0.92300
2930.77718	0.91918
2928.72338	0.91506
2926.66957	0.91146
2924.61577	0.90923
2922.56197	0.90834
2920.50816	0.90808
2918.45436	0.90832
2916.40056	0.90923
2914.34675	0.91104
2912.29295	0.91360
2910.23915	0.91616
2908.18534	0.91844
2906.13154	0.92081
2904.07774	0.92308
2902.02393	0.92502
2899.97013	0.92703
2897.91633	0.92903
2895.86252	0.93065
2893.80872	0.93181
2891.75492	0.93265
2889.70112	0.93370
2887.64731	0.93507
2885.59351	0.93616
2883.53971	0.93674
2881.48590	0.93724
2879.43210	0.93823
2877.37830	0.93934
2875.32449	0.94002
2873.27069	0.94067
2871.21689	0.94126
2869.16308	0.94138
2867.10928	0.94092
2865.05548	0.93991
2863.00167	0.93856
2860.94787	0.93718
2858.89407	0.93579
2856.84026	0.93393
2854.78646	0.93172
2852.73266	0.93012
2850.67885	0.92968
2848.62505	0.93019
2846.57125	0.93145
2844.51744	0.93331
2842.46364	0.93568
2840.40984	0.93822
2838.35603	0.94022
2836.30223	0.94167
2834.24843	0.94296
2832.19463	0.94400
2830.14082	0.94502
2828.08702	0.94611
2826.03322	0.94661
2823.97941	0.94659
2821.92561	0.94662
2819.87181	0.94699
2817.81800	0.94763
2815.76420	0.94810
2813.71040	0.94823
2811.65659	0.94819
2809.60279	0.94814
2807.54899	0.94828
2805.49518	0.94852
2803.44138	0.94868
2801.38758	0.94874
2799.33377	0.94872
2797.27997	0.94878
2795.22617	0.94895
2793.17236	0.94909
2791.11856	0.94925
2789.06476	0.94960
2787.01095	0.94999
2784.95715	0.95009
2782.90335	0.95008
2780.84955	0.95009
2778.79574	0.94995
2776.74194	0.94981
2774.68814	0.94985
2772.63433	0.94998
2770.58053	0.95028
2768.52673	0.95066
2766.47292	0.95085
2764.41912	0.95083
2762.36532	0.95073
2760.31151	0.95069
2758.25771	0.95068
2756.20391	0.95077
2754.15010	0.95114
2752.09630	0.95150
2750.04250	0.95148
2747.98869	0.95131
2745.93489	0.95132
2743.88109	0.95136
2741.82728	0.95120
2739.77348	0.95105
2737.71968	0.95117
2735.66587	0.95146
2733.61207	0.95173
2731.55827	0.95192
2729.50446	0.95196
2727.45066	0.95187
2725.39686	0.95174
2723.34306	0.95169
2721.28925	0.95190
2719.23545	0.95218
2717.18165	0.95200
2715.12784	0.95131
2713.07404	0.95088
2711.02024	0.95112
2708.96643	0.95149
2706.91263	0.95162
2704.85883	0.95165
2702.80502	0.95163
2700.75122	0.95155
2698.69742	0.95153
2696.64361	0.95153
2694.58981	0.95144
2692.53601	0.95141
2690.48220	0.95173
2688.42840	0.95199
2686.37460	0.95198
2684.32079	0.95220
2682.26699	0.95258
2680.21319	0.95260
2678.15938	0.95205
2676.10558	0.95147
2674.05178	0.95164
2671.99797	0.95223
2669.94417	0.95247
2667.89037	0.95240
2665.83657	0.95248
2663.78276	0.95267
2661.72896	0.95242
2659.67516	0.95185
2657.62135	0.95161
2655.56755	0.95169
2653.51375	0.95189
2651.45994	0.95218
2649.40614	0.95237
2647.35234	0.95245
2645.29853	0.95257
2643.24473	0.95286
2641.19093	0.95300
2639.13712	0.95261
2637.08332	0.95198
2635.02952	0.95178
2632.97571	0.95209
2630.92191	0.95242
2628.86811	0.95279
2626.81430	0.95323
2624.76050	0.95353
2622.70670	0.95374
2620.65289	0.95387
2618.59909	0.95372
2616.54529	0.95334
2614.49149	0.95295
2612.43768	0.95266
2610.38388	0.95251
2608.33008	0.95258
2606.27627	0.95269
2604.22247	0.95271
2602.16867	0.95296
2600.11486	0.95331
2598.06106	0.95327
2596.00726	0.95324
2593.95345	0.95369
2591.89965	0.95432
2589.84585	0.95463
2587.79204	0.95458
2585.73824	0.95433
2583.68444	0.95400
2581.63063	0.95375
2579.57683	0.95382
2577.52303	0.95418
2575.46922	0.95436
2573.41542	0.95402
2571.36162	0.95360
2569.30781	0.95361
2567.25401	0.95352
2565.20021	0.95330
2563.14640	0.95417
2561.09260	0.95545
2559.03880	0.95539
2556.98500	0.95452
2554.93119	0.95429
2552.87739	0.95459
2550.82359	0.95468
2548.76978	0.95454
2546.71598	0.95475
2544.66218	0.95514
2542.60837	0.95528
2540.55457	0.95543
2538.50077	0.95537
2536.44696	0.95510
2534.39316	0.95519
2532.33936	0.95524
2530.28555	0.95486
2528.23175	0.95445
2526.17795	0.95419
2524.12414	0.95420
2522.07034	0.95431
2520.01654	0.95412
2517.96273	0.95392
2515.90893	0.95399
2513.85513	0.95399
2511.80132	0.95395
2509.74752	0.95447
2507.69372	0.95553
2505.63992	0.95614
2503.58611	0.95571
2501.53231	0.95480
2499.47851	0.95431
2497.42470	0.95442
2495.37090	0.95505
2493.31710	0.95596
2491.26329	0.95628
2489.20949	0.95589
2487.15569	0.95569
2485.10188	0.95586
2483.04808	0.95579
2480.99428	0.95542
2478.94047	0.95537
2476.88667	0.95527
2474.83287	0.95466
2472.77906	0.95433
2470.72526	0.95469
2468.67146	0.95519
2466.61765	0.95533
2464.56385	0.95515
2462.51005	0.95484
2460.45624	0.95470
2458.40244	0.95501
2456.34864	0.95533
2454.29483	0.95499
2452.24103	0.95452
2450.18723	0.95483
2448.13343	0.95567
2446.07962	0.95609
2444.02582	0.95589
2441.97202	0.95590
2439.91821	0.95624
2437.86441	0.95633
2435.81061	0.95617
2433.75680	0.95624
2431.70300	0.95643
2429.64920	0.95595
2427.59539	0.95527
2425.54159	0.95541
2423.48779	0.95570
2421.43398	0.95553
2419.38018	0.95580
2417.32638	0.95661
2415.27257	0.95697
2413.21877	0.95667
2411.16497	0.95653
2409.11116	0.95649
2407.05736	0.95628
2405.00356	0.95638
2402.94975	0.95663
2400.89595	0.95677
2398.84215	0.95669
2396.78834	0.95604
2394.73454	0.95521
2392.68074	0.95501
2390.62694	0.95535
2388.57313	0.95577
2386.51933	0.95618
2384.46553	0.95648
2382.41172	0.95657
2380.35792	0.95646
2378.30412	0.95639
2376.25031	0.95645
2374.19651	0.95634
2372.14271	0.95604
2370.08890	0.95544
2368.03510	0.95516
2365.98130	0.95637
2363.92749	0.95778
2361.87369	0.95710
2359.81989	0.95552
2357.76608	0.95539
2355.71228	0.95566
2353.65848	0.95512
2351.60467	0.95494
2349.55087	0.95533
2347.49707	0.95542
2345.44326	0.95506
2343.38946	0.95471
2341.33566	0.95476
2339.28186	0.95513
2337.22805	0.95491
2335.17425	0.95401
2333.12045	0.95419
2331.06664	0.95526
2329.01284	0.95596
2326.95904	0.95620
2324.90523	0.95552
2322.85143	0.95440
2320.79763	0.95403
2318.74382	0.95442
2316.69002	0.95500
2314.63622	0.95546
2312.58241	0.95579
2310.52861	0.95564
2308.47481	0.95495
2306.42100	0.95457
2304.36720	0.95512
2302.31340	0.95584
2300.25959	0.95572
2298.20579	0.95510
2296.15199	0.95465
2294.09818	0.95434
2292.04438	0.95395
2289.99058	0.95375
2287.93677	0.95407
2285.88297	0.95466
2283.82917	0.95526
2281.77537	0.95601
2279.72156	0.95647
2277.66776	0.95606
2275.61396	0.95561
2273.56015	0.95573
2271.50635	0.95653
2269.45255	0.95734
2267.39874	0.95686
2265.34494	0.95613
2263.29114	0.95627
2261.23733	0.95626
2259.18353	0.95608
2257.12973	0.95628
2255.07592	0.95597
2253.02212	0.95580
2250.96832	0.95706
2248.91451	0.95830
2246.86071	0.95850
2244.80691	0.95838
2242.75310	0.95786
2240.69930	0.95680
2238.64550	0.95596
2236.59169	0.95614
2234.53789	0.95700
2232.48409	0.95731
2230.43029	0.95733
2228.37648	0.95742
2226.32268	0.95743
2224.26888	0.95821
2222.21507	0.95870
2220.16127	0.95776
2218.10747	0.95731
2216.05366	0.95837
2213.99986	0.95877
2211.94606	0.95773
2209.89225	0.95789
2207.83845	0.95938
2205.78465	0.95926
2203.73084	0.95767
2201.67704	0.95680
2199.62324	0.95705
2197.56943	0.95708
2195.51563	0.95605
2193.46183	0.95472
2191.40802	0.95434
2189.35422	0.95610
2187.30042	0.95924
2185.24661	0.96142
2183.19281	0.96219
2181.13901	0.96250
2179.08520	0.96107
2177.03140	0.95794
2174.97760	0.95730
2172.92380	0.95887
2170.86999	0.95976
2168.81619	0.95954
2166.76239	0.95744
2164.70858	0.95633
2162.65478	0.95783
2160.60098	0.95820
2158.54717	0.95736
2156.49337	0.95902
2154.43957	0.96286
2152.38576	0.96486
2150.33196	0.96501
2148.27816	0.96502
2146.22435	0.96322
2144.17055	0.96126
2142.11675	0.96201
2140.06294	0.96215
2138.00914	0.96003
2135.95534	0.95900
2133.90153	0.95923
2131.84773	0.95917
2129.79393	0.95946
2127.74012	0.96060
2125.68632	0.96139
2123.63252	0.96066
2121.57871	0.95941
2119.52491	0.95884
2117.47111	0.95829
2115.41731	0.95720
2113.36350	0.95713
2111.30970	0.95881
2109.25590	0.95974
2107.20209	0.95854
2105.14829	0.95713
2103.09449	0.95732
2101.04068	0.95874
2098.98688	0.96003
2096.93308	0.96117
2094.87927	0.96242
2092.82547	0.96195
2090.77167	0.96051
2088.71786	0.96005
2086.66406	0.95944
2084.61026	0.95881
2082.55645	0.95934
2080.50265	0.95974
2078.44885	0.95883
2076.39504	0.95795
2074.34124	0.95804
2072.28744	0.95767
2070.23363	0.95682
2068.17983	0.95756
2066.12603	0.95882
2064.07223	0.95903
2062.01842	0.95990
2059.96462	0.96157
2057.91082	0.96170
2055.85701	0.96028
2053.80321	0.95911
2051.74941	0.95694
2049.69560	0.95454
2047.64180	0.95604
2045.58800	0.95950
2043.53419	0.96045
2041.48039	0.95955
2039.42659	0.96022
2037.37278	0.96264
2035.31898	0.96295
2033.26518	0.96093
2031.21137	0.95874
2029.15757	0.95784
2027.10377	0.96002
2025.04996	0.96233
2022.99616	0.96113
2020.94236	0.95879
2018.88855	0.95721
2016.83475	0.95655
2014.78095	0.95747
2012.72714	0.95808
2010.67334	0.95803
2008.61954	0.95924
2006.56574	0.96007
2004.51193	0.95957
2002.45813	0.95931
2000.40433	0.95856
1998.35052	0.95831
1996.29672	0.96010
1994.24292	0.96174
1992.18911	0.96252
1990.13531	0.96303
1988.08151	0.96259
1986.02770	0.96161
1983.97390	0.96065
1981.92010	0.96051
1979.86629	0.96136
1977.81249	0.96081
1975.75869	0.95939
1973.70488	0.95974
1971.65108	0.95932
1969.59728	0.95670
1967.54347	0.95651
1965.48967	0.95951
1963.43587	0.96114
1961.38206	0.96078
1959.32826	0.95987
1957.27446	0.95893
1955.22066	0.95832
1953.16685	0.95745
1951.11305	0.95653
1949.05925	0.95639
1947.00544	0.95643
1944.95164	0.95690
1942.89784	0.95829
1940.84403	0.95887
1938.79023	0.95813
1936.73643	0.95845
1934.68262	0.95998
1932.62882	0.96053
1930.57502	0.95983
1928.52121	0.95967
1926.46741	0.96110
1924.41361	0.96221
1922.35980	0.96099
1920.30600	0.95934
1918.25220	0.95957
1916.19839	0.96049
1914.14459	0.96034
1912.09079	0.95997
1910.03698	0.95996
1907.98318	0.96027
1905.92938	0.96081
1903.87557	0.96085
1901.82177	0.96033
1899.76797	0.96008
1897.71417	0.96044
1895.66036	0.96092
1893.60656	0.96110
1891.55276	0.96068
1889.49895	0.95985
1887.44515	0.95937
1885.39135	0.95882
1883.33754	0.95794
1881.28374	0.95739
1879.22994	0.95719
1877.17613	0.95706
1875.12233	0.95701
1873.06853	0.95708
1871.01472	0.95736
1868.96092	0.95774
1866.90712	0.95761
1864.85331	0.95693
1862.79951	0.95667
1860.74571	0.95720
1858.69190	0.95793
1856.63810	0.95868
1854.58430	0.95917
1852.53049	0.95904
1850.47669	0.95862
1848.42289	0.95832
1846.36908	0.95853
1844.31528	0.95916
1842.26148	0.95986
1840.20768	0.96032
1838.15387	0.96036
1836.10007	0.96022
1834.04627	0.96000
1831.99246	0.95980
1829.93866	0.95965
1827.88486	0.95929
1825.83105	0.95889
1823.77725	0.95873
1821.72345	0.95900
1819.66964	0.95921
1817.61584	0.95883
1815.56204	0.95813
1813.50823	0.95768
1811.45443	0.95736
1809.40063	0.95673
1807.34682	0.95628
1805.29302	0.95624
1803.23922	0.95610
1801.18541	0.95605
1799.13161	0.95645
1797.07781	0.95697
1795.02400	0.95746
1792.97020	0.95763
1790.91640	0.95760
1788.86260	0.95801
1786.80879	0.95867
1784.75499	0.95901
1782.70119	0.95879
1780.64738	0.95855
1778.59358	0.95841
1776.53978	0.95816
1774.48597	0.95810
1772.43217	0.95828
1770.37837	0.95853
1768.32456	0.95841
1766.27076	0.95780
1764.21696	0.95752
1762.16315	0.95757
1760.10935	0.95710
1758.05555	0.95642
1756.00174	0.95588
1753.94794	0.95521
1751.89414	0.95415
1749.84033	0.95268
1747.78653	0.95155
1745.73273	0.95096
1743.67892	0.95055
1741.62512	0.95016
1739.57132	0.94968
1737.51751	0.94953
1735.46371	0.94991
1733.40991	0.95052
1731.35611	0.95088
1729.30230	0.95100
1727.24850	0.95100
1725.19470	0.95100
1723.14089	0.95095
1721.08709	0.95115
1719.03329	0.95169
1716.97948	0.95220
1714.92568	0.95259
1712.87188	0.95286
1710.81807	0.95309
1708.76427	0.95339
1706.71047	0.95329
1704.65666	0.95277
1702.60286	0.95254
1700.54906	0.95252
1698.49525	0.95250
1696.44145	0.95223
1694.38765	0.95184
1692.33384	0.95183
1690.28004	0.95159
1688.22624	0.95087
1686.17243	0.95013
1684.11863	0.94932
1682.06483	0.94866
1680.01103	0.94814
1677.95722	0.94732
1675.90342	0.94627
1673.84962	0.94548
1671.79581	0.94511
1669.74201	0.94492
1667.68821	0.94466
1665.63440	0.94406
1663.58060	0.94302
1661.52680	0.94196
1659.47299	0.94166
1657.41919	0.94193
1655.36539	0.94228
1653.31158	0.94180
1651.25778	0.94064
1649.20398	0.94034
1647.15017	0.94046
1645.09637	0.94062
1643.04257	0.94084
1640.98876	0.94099
1638.93496	0.94079
1636.88116	0.94016
1634.82735	0.93975
1632.77355	0.93987
1630.71975	0.93997
1628.66594	0.93996
1626.61214	0.93987
1624.55834	0.93969
1622.50454	0.93938
1620.45073	0.93936
1618.39693	0.93981
1616.34313	0.94009
1614.28932	0.93968
1612.23552	0.93878
1610.18172	0.93723
1608.12791	0.93437
1606.07411	0.92958
1604.02031	0.92334
1601.96650	0.91804
1599.91270	0.91710
1597.85890	0.92095
1595.80509	0.92665
1593.75129	0.93130
1591.69749	0.93418
1589.64368	0.93591
1587.58988	0.93657
1585.53608	0.93577
1583.48227	0.93463
1581.42847	0.93523
1579.37467	0.93750
1577.32086	0.93987
1575.26706	0.94145
1573.21326	0.94260
1571.15945	0.94386
1569.10565	0.94499
1567.05185	0.94544
1564.99805	0.94558
1562.94424	0.94585
1560.89044	0.94623
1558.83664	0.94666
1556.78283	0.94690
1554.72903	0.94704
1552.67523	0.94694
1550.62142	0.94652
1548.56762	0.94625
1546.51382	0.94629
1544.46001	0.94639
1542.40621	0.94691
1540.35241	0.94783
1538.29860	0.94806
1536.24480	0.94810
1534.19100	0.94862
1532.13719	0.94931
1530.08339	0.94969
1528.02959	0.95029
1525.97578	0.95095
1523.92198	0.95103
1521.86818	0.95095
1519.81437	0.95129
1517.76057	0.95191
1515.70677	0.95250
1513.65297	0.95259
1511.59916	0.95229
1509.54536	0.95206
1507.49156	0.95189
1505.43775	0.95136
1503.38395	0.95043
1501.33015	0.94843
1499.27634	0.94259
1497.22254	0.92612
1495.16874	0.90082
1493.11493	0.88464
1491.06113	0.88684
1489.00733	0.90555
1486.95352	0.92259
1484.89972	0.93102
1482.84592	0.93589
1480.79211	0.93926
1478.73831	0.94127
1476.68451	0.94229
1474.63070	0.94264
1472.57690	0.94219
1470.52310	0.94126
1468.46929	0.94051
1466.41549	0.93994
1464.36169	0.93930
1462.30788	0.93861
1460.25408	0.93740
1458.20028	0.92984
1456.14648	0.90649
1454.09267	0.88431
1452.03887	0.87483
1449.98507	0.87752
1447.93126	0.88772
1445.87746	0.89767
1443.82366	0.90495
1441.76985	0.91081
1439.71605	0.91561
1437.66225	0.92019
1435.60844	0.92494
1433.55464	0.92857
1431.50084	0.93141
1429.44703	0.93366
1427.39323	0.93499
1425.33943	0.93581
1423.28562	0.93675
1421.23182	0.93784
1419.17802	0.93884
1417.12421	0.93958
1415.07041	0.94003
1413.01661	0.94041
1410.96280	0.94107
1408.90900	0.94213
1406.85520	0.94310
1404.80139	0.94374
1402.74759	0.94431
1400.69379	0.94502
1398.63999	0.94580
1396.58618	0.94634
1394.53238	0.94628
1392.47858	0.94578
1390.42477	0.94531
1388.37097	0.94468
1386.31717	0.94362
1384.26336	0.94256
1382.20956	0.94170
1380.15576	0.94077
1378.10195	0.93989
1376.04815	0.93941
1373.99435	0.93920
1371.94054	0.93904
1369.88674	0.93873
1367.83294	0.93832
1365.77913	0.93834
1363.72533	0.93893
1361.67153	0.93985
1359.61772	0.94081
1357.56392	0.94168
1355.51012	0.94240
1353.45631	0.94296
1351.40251	0.94329
1349.34871	0.94325
1347.29491	0.94326
1345.24110	0.94364
1343.18730	0.94409
1341.13350	0.94466
1339.07969	0.94537
1337.02589	0.94572
1334.97209	0.94561
1332.91828	0.94523
1330.86448	0.94462
1328.81068	0.94394
1326.75687	0.94367
1324.70307	0.94392
1322.64927	0.94431
1320.59546	0.94472
1318.54166	0.94500
1316.48786	0.94486
1314.43405	0.94448
1312.38025	0.94428
1310.32645	0.94449
1308.27264	0.94493
1306.21884	0.94522
1304.16504	0.94533
1302.11123	0.94564
1300.05743	0.94610
1298.00363	0.94633
1295.94982	0.94640
1293.89602	0.94663
1291.84222	0.94682
1289.78842	0.94668
1287.73461	0.94634
1285.68081	0.94599
1283.62701	0.94583
1281.57320	0.94570
1279.51940	0.94523
1277.46560	0.94458
1275.41179	0.94411
1273.35799	0.94371
1271.30419	0.94363
1269.25038	0.94400
1267.19658	0.94414
1265.14278	0.94397
1263.08897	0.94401
1261.03517	0.94431
1258.98137	0.94461
1256.92756	0.94474
1254.87376	0.94469
1252.81996	0.94450
1250.76615	0.94428
1248.71235	0.94423
1246.65855	0.94435
1244.60474	0.94433
1242.55094	0.94416
1240.49714	0.94383
1238.44334	0.94339
1236.38953	0.94312
1234.33573	0.94305
1232.28193	0.94306
1230.22812	0.94290
1228.17432	0.94243
1226.12052	0.94183
1224.06671	0.94121
1222.01291	0.94060
1219.95911	0.93993
1217.90530	0.93905
1215.85150	0.93813
1213.79770	0.93729
1211.74389	0.93611
1209.69009	0.93446
1207.63629	0.93274
1205.58248	0.93110
1203.52868	0.92924
1201.47488	0.92707
1199.42107	0.92500
1197.36727	0.92300
1195.31347	0.92075
1193.25966	0.91831
1191.20586	0.91566
1189.15206	0.91303
1187.09825	0.91049
1185.04445	0.90747
1182.99065	0.90398
1180.93685	0.90116
1178.88304	0.89967
1176.82924	0.89876
1174.77544	0.89760
1172.72163	0.89621
1170.66783	0.89473
1168.61403	0.89323
1166.56022	0.89161
1164.50642	0.88976
1162.45262	0.88804
1160.39881	0.88651
1158.34501	0.88450
1156.29121	0.88203
1154.23740	0.88018
1152.18360	0.87946
1150.12980	0.87949
1148.07599	0.87986
1146.02219	0.87980
1143.96839	0.87892
1141.91458	0.87788
1139.86078	0.87728
1137.80698	0.87670
1135.75317	0.87575
1133.69937	0.87460
1131.64557	0.87306
1129.59176	0.87104
1127.53796	0.86872
1125.48416	0.86595
1123.43036	0.86249
1121.37655	0.85863
1119.32275	0.85457
1117.26895	0.85018
1115.21514	0.84560
1113.16134	0.84119
1111.10754	0.83750
1109.05373	0.83451
1106.99993	0.83182
1104.94613	0.82956
1102.89232	0.82737
1100.83852	0.82504
1098.78472	0.82320
1096.73091	0.82190
1094.67711	0.82060
1092.62331	0.81893
1090.56950	0.81740
1088.51570	0.81627
1086.46190	0.81475
1084.40809	0.81291
1082.35429	0.81117
1080.30049	0.80946
1078.24668	0.80782
1076.19288	0.80584
1074.13908	0.80318
1072.08528	0.80015
1070.03147	0.79697
1067.97767	0.79383
1065.92387	0.79109
1063.87006	0.78873
1061.81626	0.78667
1059.76246	0.78501
1057.70865	0.78315
1055.65485	0.78055
1053.60105	0.77741
1051.54724	0.77368
1049.49344	0.76928
1047.43964	0.76432
1045.38583	0.75889
1043.33203	0.75299
1041.27823	0.74659
1039.22442	0.74003
1037.17062	0.73343
1035.11682	0.72578
1033.06301	0.71664
1031.00921	0.70736
1028.95541	0.70016
1026.90160	0.69669
1024.84780	0.69655
1022.79400	0.69780
1020.74019	0.69900
1018.68639	0.69970
1016.63259	0.69977
1014.57879	0.69920
1012.52498	0.69829
1010.47118	0.69778
1008.41738	0.69776
1006.36357	0.69785
1004.30977	0.69845
1002.25597	0.70017
1000.20216	0.70323
998.14836	0.70744
996.09456	0.71206
994.04075	0.71673
991.98695	0.72180
989.93315	0.72723
987.87934	0.73256
985.82554	0.73778
983.77174	0.74346
981.71793	0.75011
979.66413	0.75784
977.61033	0.76622
975.55652	0.77480
973.50272	0.78344
971.44892	0.79154
969.39511	0.79852
967.34131	0.80441
965.28751	0.80990
963.23371	0.81570
961.17990	0.82154
959.12610	0.82739
957.07230	0.83315
955.01849	0.83810
952.96469	0.84216
950.91089	0.84538
948.85708	0.84761
946.80328	0.84941
944.74948	0.85138
942.69567	0.85361
940.64187	0.85581
938.58807	0.85783
936.53426	0.86011
934.48046	0.86281
932.42666	0.86550
930.37285	0.86803
928.31905	0.87007
926.26525	0.87132
924.21144	0.87200
922.15764	0.87194
920.10384	0.87116
918.05003	0.87007
915.99623	0.86837
913.94243	0.86580
911.88862	0.86304
909.83482	0.86111
907.78102	0.86108
905.72722	0.86362
903.67341	0.86880
901.61961	0.87597
899.56581	0.88369
897.51200	0.89028
895.45820	0.89498
893.40440	0.89833
891.35059	0.90118
889.29679	0.90352
887.24299	0.90504
885.18918	0.90609
883.13538	0.90679
881.08158	0.90731
879.02777	0.90819
876.97397	0.90930
874.92017	0.91088
872.86636	0.91334
870.81256	0.91557
868.75876	0.91710
866.70495	0.91891
864.65115	0.92108
862.59735	0.92272
860.54354	0.92363
858.48974	0.92442
856.43594	0.92514
854.38213	0.92556
852.32833	0.92571
850.27453	0.92516
848.22073	0.92365
846.16692	0.92205
844.11312	0.92108
842.05932	0.92040
840.00551	0.91971
837.95171	0.91947
835.89791	0.92005
833.84410	0.92066
831.79030	0.92065
829.73650	0.92090
827.68269	0.92167
825.62889	0.92226
823.57509	0.92280
821.52128	0.92337
819.46748	0.92389
817.41368	0.92441
815.35987	0.92471
813.30607	0.92468
811.25227	0.92405
809.19846	0.92267
807.14466	0.92012
805.09086	0.91631
803.03705	0.91216
800.98325	0.90894
798.92945	0.90794
796.87565	0.90899
794.82184	0.91056
792.76804	0.91136
790.71424	0.91075
788.66043	0.90890
786.60663	0.90632
784.55283	0.90337
782.49902	0.90070
780.44522	0.89830
778.39142	0.89502
776.33761	0.89034
774.28381	0.88453
772.23001	0.87730
770.17620	0.86776
768.12240	0.85616
766.06860	0.84397
764.01479	0.83198
761.96099	0.81991
759.90719	0.80816
757.85338	0.79890
755.79958	0.79385
753.74578	0.79268
751.69197	0.79385
749.63817	0.79589
747.58437	0.79966
745.53056	0.80797
743.47676	0.82129
741.42296	0.83672
739.36916	0.85134
737.31535	0.86419
735.26155	0.87591
733.20775	0.88686
731.15394	0.89549
729.10014	0.90041
727.04634	0.90283
724.99253	0.90479
722.93873	0.90681
720.88493	0.90810
718.83112	0.90840
716.77732	0.90816
714.72352	0.90703
712.66971	0.90296
710.61591	0.89208
708.56211	0.86950
706.50830	0.83154
704.45450	0.77723
702.40070	0.70884
700.34689	0.63216
698.29309	0.56004
696.23929	0.52065
694.18548	0.54387
692.13168	0.62087
690.07788	0.70548
688.02408	0.76419
685.97027	0.79729
683.91647	0.81719
681.86267	0.83086
679.80886	0.84023
677.75506	0.84590
675.70126	0.84894
673.64745	0.85172
671.59365	0.85486
669.53985	0.85742
667.48604	0.85963
665.43224	0.86132
663.37844	0.86223
661.32463	0.86294
659.27083	0.86383
657.21703	0.86475
655.16322	0.86593
653.10942	0.86739
651.05562	0.86856
649.00181	0.86965
646.94801	0.87096
644.89421	0.87175
642.84040	0.87233
640.78660	0.87387
638.73280	0.87495
636.67899	0.87400
634.62519	0.87335
632.57139	0.87456
630.51759	0.87566
628.46378	0.87515
626.40998	0.87295
624.35618	0.87083
622.30237	0.87005
620.24857	0.86934
618.19477	0.86839
616.14096	0.86816
614.08716	0.86801
612.03336	0.86627
609.97955	0.86340
607.92575	0.86092
605.87195	0.85925
603.81814	0.85836
601.76434	0.85764
599.71054	0.85626
597.65673	0.85431
595.60293	0.85260
593.54913	0.85066
591.49532	0.84853
589.44152	0.84787
587.38772	0.84791
585.33391	0.84637
583.28011	0.84403
581.22631	0.84227
579.17250	0.83993
577.11870	0.83713
575.06490	0.83497
573.01110	0.83216
570.95729	0.82744
568.90349	0.82181
566.84969	0.81596
564.79588	0.80945
562.74208	0.80232
560.68828	0.79507
558.63447	0.78926
556.58067	0.78517
554.52687	0.78000
552.47306	0.77286
550.41926	0.76538
548.36546	0.75688
546.31165	0.74649
544.25785	0.73522
542.20405	0.72365
540.15024	0.71374
538.09644	0.70787
536.04264	0.70621
533.98883	0.70816
531.93503	0.71356
529.88123	0.72190
527.82742	0.73133
525.77362	0.74116
523.71982	0.75010
521.66602	0.75645
519.61221	0.76161
517.55841	0.76639
515.50461	0.77034
513.45080	0.77472
511.39700	0.78043
509.34320	0.78604
507.28939	0.78965
505.23559	0.79281
503.18179	0.79687
501.12798	0.79934
499.07418	0.79910
497.02038	0.79796
494.96657	0.79641
492.91277	0.79237
490.85897	0.78520
488.80516	0.77773
486.75136	0.76986
484.69756	0.75870
482.64375	0.74642
480.58995	0.73665
478.53615	0.72641
476.48234	0.71427
474.42854	0.70505
472.37474	0.69985
470.32093	0.69644
468.26713	0.69594
466.21333	0.69892
464.15953	0.70406
462.10572	0.70987
460.05192	0.71534
457.99812	0.72092
455.94431	0.72778
453.89051	0.73564
451.83671	0.74291
449.78290	0.74846
447.72910	0.75167
445.67530	0.75308
443.62149	0.75552
441.56769	0.75872
439.51389	0.75945
437.46008	0.75721
435.40628	0.75373
433.35248	0.75196
431.29867	0.75246
429.24487	0.75446
427.19107	0.75826
425.13726	0.76171
423.08346	0.76367
421.02966	0.76543
418.97585	0.76551
416.92205	0.76630
414.86825	0.77275
412.81445	0.78193
410.76064	0.78865
408.70684	0.79262
406.65304	0.79628
404.59923	0.79959
402.54543	0.80192
400.49163	0.80454
398.43782	0.80684
