3996.70104	0.94620
3994.64724	0.94697
3992.59344	0.94699
3990.53964	0.94649
3988.48583	0.94631
3986.43203	0.94662
3984.37823	0.94672
3982.32442	0.94626
3980.27062	0.94627
3978.21682	0.94694
3976.16301	0.94695
3974.10921	0.94646
3972.05541	0.94629
3970.00160	0.94640
3967.94780	0.94680
3965.89400	0.94728
3963.84019	0.94749
3961.78639	0.94730
3959.73259	0.94683
3957.67878	0.94639
3955.62498	0.94628
3953.57118	0.94648
3951.51737	0.94685
3949.46357	0.94699
3947.40977	0.94659
3945.35596	0.94635
3943.30216	0.94675
3941.24836	0.94734
3939.19455	0.94783
3937.14075	0.94817
3935.08695	0.94796
3933.03315	0.94724
3930.97934	0.94659
3928.92554	0.94652
3926.87174	0.94713
3924.81793	0.94753
3922.76413	0.94734
3920.71033	0.94733
3918.65652	0.94738
3916.60272	0.94713
3914.54892	0.94700
3912.49511	0.94702
3910.44131	0.94690
3908.38751	0.94698
3906.33370	0.94708
3904.27990	0.94661
3902.22610	0.94667
3900.17229	0.94752
3898.11849	0.94779
3896.06469	0.94782
3894.01088	0.94802
3891.95708	0.94784
3889.90328	0.94739
3887.84947	0.94695
3885.79567	0.94645
3883.74187	0.94677
3881.68807	0.94754
3879.63426	0.94754
3877.58046	0.94723
3875.52666	0.94742
3873.47285	0.94783
3871.41905	0.94780
3869.36525	0.94735
3867.31144	0.94723
3865.25764	0.94762
3863.20384	0.94797
3861.15003	0.94784
3859.09623	0.94754
3857.04243	0.94757
3854.98862	0.94823
3852.93482	0.94859
3850.88102	0.94787
3848.82721	0.94761
3846.77341	0.94795
3844.71961	0.94847
3842.66580	0.94915
3840.61200	0.94978
3838.55820	0.94980
3836.50439	0.94913
3834.45059	0.94845
3832.39679	0.94808
3830.34298	0.94807
3828.28918	0.94863
3826.23538	0.94940
3824.18158	0.94976
3822.12777	0.94950
3820.07397	0.94866
3818.02017	0.94816
3815.96636	0.94810
3813.91256	0.94825
3811.85876	0.94855
3809.80495	0.94880
3807.75115	0.94869
3805.69735	0.94827
3803.64354	0.94805
3801.58974	0.94798
3799.53594	0.94785
3797.48213	0.94791
3795.42833	0.94786
3793.37453	0.94742
3791.32072	0.94742
3789.26692	0.94827
3787.21312	0.94934
3785.15931	0.94969
3783.10551	0.94958
3781.05171	0.95001
3778.99790	0.95012
3776.94410	0.94940
3774.89030	0.94914
3772.83650	0.94935
3770.78269	0.94933
3768.72889	0.94933
3766.67509	0.94931
3764.62128	0.94876
3762.56748	0.94859
3760.51368	0.94922
3758.45987	0.94939
3756.40607	0.94912
3754.35227	0.94965
3752.29846	0.95071
3750.24466	0.95059
3748.19086	0.94967
3746.13705	0.94969
3744.08325	0.94975
3742.02945	0.94973
3739.97564	0.95055
3737.92184	0.95101
3735.86804	0.94992
3733.81423	0.94881
3731.76043	0.94898
3729.70663	0.94973
3727.65282	0.95044
3725.59902	0.95037
3723.54522	0.94973
3721.49141	0.94922
3719.43761	0.94915
3717.38381	0.94935
3715.33001	0.94908
3713.27620	0.94771
3711.22240	0.94557
3709.16860	0.94423
3707.11479	0.94360
3705.06099	0.94321
3703.00719	0.94254
3700.95338	0.94100
3698.89958	0.93950
3696.84578	0.93898
3694.79197	0.93942
3692.73817	0.93996
3690.68437	0.93972
3688.63056	0.93904
3686.57676	0.93946
3684.52296	0.94041
3682.46915	0.94118
3680.41535	0.94165
3678.36155	0.94164
3676.30774	0.94112
3674.25394	0.94096
3672.20014	0.94164
3670.14633	0.94147
3668.09253	0.93997
3666.03873	0.93936
3663.98492	0.93936
3661.93112	0.93883
3659.87732	0.93828
3657.82352	0.93830
3655.76971	0.93791
3653.71591	0.93734
3651.66211	0.93730
3649.60830	0.93686
3647.55450	0.93552
3645.50070	0.93438
3643.44689	0.93334
3641.39309	0.93232
3639.33929	0.93226
3637.28548	0.93319
3635.23168	0.93360
3633.17788	0.93338
3631.12407	0.93359
3629.07027	0.93323
3627.01647	0.93138
3624.96266	0.93026
3622.90886	0.92974
3620.85506	0.92923
3618.80125	0.92910
3616.74745	0.92965
3614.69365	0.93036
3612.63984	0.93113
3610.58604	0.93205
3608.53224	0.93230
3606.47844	0.93101
3604.42463	0.92960
3602.37083	0.92939
3600.31703	0.93034
3598.26322	0.93126
3596.20942	0.93108
3594.15562	0.93042
3592.10181	0.93047
3590.04801	0.93102
3587.99421	0.93090
3585.94040	0.93002
3583.88660	0.92942
3581.83280	0.92904
3579.77899	0.92914
3577.72519	0.92958
3575.67139	0.92962
3573.61758	0.92944
3571.56378	0.92946
3569.50998	0.92906
3567.45617	0.92814
3565.40237	0.92791
3563.34857	0.92786
3561.29476	0.92713
3559.24096	0.92668
3557.18716	0.92681
3555.13335	0.92673
3553.07955	0.92675
3551.02575	0.92732
3548.97195	0.92779
3546.91814	0.92758
3544.86434	0.92678
3542.81054	0.92582
3540.75673	0.92555
3538.70293	0.92612
3536.64913	0.92633
3534.59532	0.92603
3532.54152	0.92579
3530.48772	0.92562
3528.43391	0.92567
3526.38011	0.92569
3524.32631	0.92538
3522.27250	0.92510
3520.21870	0.92526
3518.16490	0.92535
3516.11109	0.92518
3514.05729	0.92528
3512.00349	0.92547
3509.94968	0.92561
3507.89588	0.92589
3505.84208	0.92611
3503.78827	0.92600
3501.73447	0.92543
3499.68067	0.92486
3497.62687	0.92475
3495.57306	0.92483
3493.51926	0.92473
3491.46546	0.92448
3489.41165	0.92390
3487.35785	0.92352
3485.30405	0.92405
3483.25024	0.92480
3481.19644	0.92493
3479.14264	0.92432
3477.08883	0.92359
3475.03503	0.92325
3472.98123	0.92292
3470.92742	0.92254
3468.87362	0.92242
3466.81982	0.92234
3464.76601	0.92219
3462.71221	0.92214
3460.65841	0.92205
3458.60460	0.92151
3456.55080	0.92082
3454.49700	0.92066
3452.44319	0.92118
3450.38939	0.92164
3448.33559	0.92115
3446.28178	0.92038
3444.22798	0.92034
3442.17418	0.92038
3440.12038	0.92003
3438.06657	0.91988
3436.01277	0.92013
3433.95897	0.92060
3431.90516	0.92102
3429.85136	0.92090
3427.79756	0.92027
3425.74375	0.91980
3423.68995	0.91989
3421.63615	0.92025
3419.58234	0.92017
3417.52854	0.91979
3415.47474	0.91974
3413.42093	0.91977
3411.36713	0.91956
3409.31333	0.91935
3407.25952	0.91914
3405.20572	0.91898
3403.15192	0.91888
3401.09811	0.91866
3399.04431	0.91874
3396.99051	0.91922
3394.93670	0.91889
3392.88290	0.91778
3390.82910	0.91744
3388.77529	0.91804
3386.72149	0.91858
3384.66769	0.91859
3382.61389	0.91867
3380.56008	0.91890
3378.50628	0.91869
3376.45248	0.91851
3374.39867	0.91898
3372.34487	0.91910
3370.29107	0.91832
3368.23726	0.91790
3366.18346	0.91802
3364.12966	0.91806
3362.07585	0.91832
3360.02205	0.91893
3357.96825	0.91891
3355.91444	0.91801
3353.86064	0.91752
3351.80684	0.91775
3349.75303	0.91816
3347.69923	0.91863
3345.64543	0.91925
3343.59162	0.91987
3341.53782	0.92015
3339.48402	0.92020
3337.43021	0.92042
3335.37641	0.92044
3333.32261	0.91981
3331.26881	0.91933
3329.21500	0.91975
3327.16120	0.92040
3325.10740	0.92050
3323.05359	0.92018
3320.99979	0.92006
3318.94599	0.92023
3316.89218	0.92015
3314.83838	0.92002
3312.78458	0.92031
3310.73077	0.92095
3308.67697	0.92165
3306.62317	0.92170
3304.56936	0.92098
3302.51556	0.92044
3300.46176	0.92050
3298.40795	0.92092
3296.35415	0.92133
3294.30035	0.92153
3292.24654	0.92168
3290.19274	0.92163
3288.13894	0.92127
3286.08513	0.92104
3284.03133	0.92122
3281.97753	0.92171
3279.92372	0.92210
3277.86992	0.92232
3275.81612	0.92232
3273.76232	0.92206
3271.70851	0.92204
3269.65471	0.92214
3267.60091	0.92196
3265.54710	0.92176
3263.49330	0.92182
3261.43950	0.92210
3259.38569	0.92257
3257.33189	0.92320
3255.27809	0.92361
3253.22428	0.92342
3251.17048	0.92272
3249.11668	0.92219
3247.06287	0.92255
3245.00907	0.92322
3242.95527	0.92347
3240.90146	0.92368
3238.84766	0.92383
3236.79386	0.92365
3234.74005	0.92350
3232.68625	0.92372
3230.63245	0.92437
3228.57864	0.92469
3226.52484	0.92439
3224.47104	0.92439
3222.41724	0.92484
3220.36343	0.92504
3218.30963	0.92494
3216.25583	0.92490
3214.20202	0.92496
3212.14822	0.92503
3210.09442	0.92493
3208.04061	0.92498
3205.98681	0.92556
3203.93301	0.92617
3201.87920	0.92627
3199.82540	0.92629
3197.77160	0.92693
3195.71779	0.92767
3193.66399	0.92786
3191.61019	0.92762
3189.55638	0.92703
3187.50258	0.92655
3185.44878	0.92663
3183.39497	0.92704
3181.34117	0.92759
3179.28737	0.92821
3177.23356	0.92843
3175.17976	0.92817
3173.12596	0.92812
3171.07215	0.92837
3169.01835	0.92856
3166.96455	0.92897
3164.91075	0.92970
3162.85694	0.92997
3160.80314	0.92990
3158.74934	0.93020
3156.69553	0.93056
3154.64173	0.93073
3152.58793	0.93090
3150.53412	0.93111
3148.48032	0.93114
3146.42652	0.93116
3144.37271	0.93157
3142.31891	0.93204
3140.26511	0.93223
3138.21130	0.93229
3136.15750	0.93235
3134.10370	0.93212
3132.04989	0.93171
3129.99609	0.93205
3127.94229	0.93307
3125.88848	0.93364
3123.83468	0.93357
3121.78088	0.93356
3119.72707	0.93397
3117.67327	0.93434
3115.61947	0.93414
3113.56566	0.93353
3111.51186	0.93312
3109.45806	0.93309
3107.40426	0.93308
3105.35045	0.93286
3103.29665	0.93264
3101.24285	0.93255
3099.18904	0.93240
3097.13524	0.93244
3095.08144	0.93265
3093.02763	0.93241
3090.97383	0.93149
3088.92003	0.92981
3086.86622	0.92774
3084.81242	0.92598
3082.75862	0.92495
3080.70481	0.92493
3078.65101	0.92588
3076.59721	0.92708
3074.54340	0.92794
3072.48960	0.92849
3070.43580	0.92866
3068.38199	0.92786
3066.32819	0.92610
3064.27439	0.92387
3062.22058	0.92130
3060.16678	0.91955
3058.11298	0.91983
3056.05918	0.92174
3054.00537	0.92431
3051.95157	0.92673
3049.89777	0.92849
3047.84396	0.92969
3045.79016	0.93065
3043.73636	0.93104
3041.68255	0.93043
3039.62875	0.92925
3037.57495	0.92794
3035.52114	0.92596
3033.46734	0.92243
3031.41354	0.91730
3029.35973	0.91115
3027.30593	0.90560
3025.25213	0.90301
3023.19832	0.90471
3021.14452	0.90977
3019.09072	0.91581
3017.03691	0.92115
3014.98311	0.92529
3012.92931	0.92815
3010.87550	0.92982
3008.82170	0.93031
3006.76790	0.93007
3004.71409	0.92971
3002.66029	0.92936
3000.60649	0.92951
2998.55269	0.93084
2996.49888	0.93275
2994.44508	0.93435
2992.39128	0.93549
2990.33747	0.93621
2988.28367	0.93653
2986.22987	0.93642
2984.17606	0.93611
2982.12226	0.93636
2980.06846	0.93713
2978.01465	0.93740
2975.96085	0.93684
2973.90705	0.93605
2971.85324	0.93515
2969.79944	0.93406
2967.74564	0.93328
2965.69183	0.93270
2963.63803	0.93158
2961.58423	0.93008
2959.53042	0.92890
2957.47662	0.92807
2955.42282	0.92732
2953.36901	0.92651
2951.31521	0.92570
2949.26141	0.92483
2947.20761	0.92344
2945.15380	0.92122
2943.10000	0.91835
2941.04620	0.91525
2938.99239	0.91167
2936.93859	0.90702
2934.88479	0.90143
2932.83098	0.89573
2930.77718	0.89052
2928.72338	0.88556
2926.66957	0.88065
2924.61577	0.87618
2922.56197	0.87279
2920.50816	0.87125
2918.45436	0.87187
2916.40056	0.87423
2914.34675	0.87769
2912.29295	0.88192
2910.23915	0.88671
2908.18534	0.89155
2906.13154	0.89615
2904.07774	0.90022
2902.02393	0.90357
2899.97013	0.90649
2897.91633	0.90899
2895.86252	0.91116
2893.80872	0.91347
2891.75492	0.91569
2889.70112	0.91730
2887.64731	0.91849
2885.59351	0.91986
2883.53971	0.92147
2881.48590	0.92277
2879.43210	0.92362
2877.37830	0.92422
2875.32449	0.92457
2873.27069	0.92483
2871.21689	0.92501
2869.16308	0.92511
2867.10928	0.92504
2865.05548	0.92447
2863.00167	0.92325
2860.94787	0.92106
2858.89407	0.91769
2856.84026	0.91376
2854.78646	0.91016
2852.73266	0.90729
2850.67885	0.90582
2848.62505	0.90650
2846.57125	0.90937
2844.51744	0.91373
2842.46364	0.91846
2840.40984	0.92273
2838.35603	0.92625
2836.30223	0.92898
2834.24843	0.93094
2832.19463	0.93234
2830.14082	0.93382
2828.08702	0.93519
2826.03322	0.93563
2823.97941	0.93590
2821.92561	0.93685
2819.87181	0.93767
2817.81800	0.93782
2815.76420	0.93788
2813.71040	0.93830
2811.65659	0.93892
2809.60279	0.93944
2807.54899	0.93981
2805.49518	0.94004
2803.44138	0.94011
2801.38758	0.94022
2799.33377	0.94043
2797.27997	0.94060
2795.22617	0.94071
2793.17236	0.94102
2791.11856	0.94148
2789.06476	0.94164
2787.01095	0.94145
2784.95715	0.94140
2782.90335	0.94168
2780.84955	0.94195
2778.79574	0.94201
2776.74194	0.94210
2774.68814	0.94236
2772.63433	0.94250
2770.58053	0.94259
2768.52673	0.94290
2766.47292	0.94315
2764.41912	0.94321
2762.36532	0.94332
2760.31151	0.94325
2758.25771	0.94287
2756.20391	0.94267
2754.15010	0.94289
2752.09630	0.94326
2750.04250	0.94338
2747.98869	0.94312
2745.93489	0.94319
2743.88109	0.94368
2741.82728	0.94383
2739.77348	0.94359
2737.71968	0.94333
2735.66587	0.94321
2733.61207	0.94355
2731.55827	0.94420
2729.50446	0.94446
2727.45066	0.94418
2725.39686	0.94392
2723.34306	0.94415
2721.28925	0.94459
2719.23545	0.94466
2717.18165	0.94437
2715.12784	0.94423
2713.07404	0.94444
2711.02024	0.94466
2708.96643	0.94465
2706.91263	0.94451
2704.85883	0.94430
2702.80502	0.94417
2700.75122	0.94422
2698.69742	0.94439
2696.64361	0.94455
2694.58981	0.94469
2692.53601	0.94474
2690.48220	0.94470
2688.42840	0.94462
2686.37460	0.94461
2684.32079	0.94466
2682.26699	0.94475
2680.21319	0.94514
2678.15938	0.94542
2676.10558	0.94508
2674.05178	0.94475
2671.99797	0.94486
2669.94417	0.94519
2667.89037	0.94552
2665.83657	0.94572
2663.78276	0.94577
2661.72896	0.94567
2659.67516	0.94536
2657.62135	0.94502
2655.56755	0.94506
2653.51375	0.94552
2651.45994	0.94599
2649.40614	0.94600
2647.35234	0.94561
2645.29853	0.94535
2643.24473	0.94546
2641.19093	0.94596
2639.13712	0.94647
2637.08332	0.94655
2635.02952	0.94638
2632.97571	0.94637
2630.92191	0.94652
2628.86811	0.94687
2626.81430	0.94743
2624.76050	0.94776
2622.70670	0.94765
2620.65289	0.94747
2618.59909	0.94746
2616.54529	0.94744
2614.49149	0.94724
2612.43768	0.94699
2610.38388	0.94696
2608.33008	0.94698
2606.27627	0.94695
2604.22247	0.94703
2602.16867	0.94736
2600.11486	0.94772
2598.06106	0.94772
2596.00726	0.94745
2593.95345	0.94770
2591.89965	0.94874
2589.84585	0.94940
2587.79204	0.94911
2585.73824	0.94859
2583.68444	0.94845
2581.63063	0.94871
2579.57683	0.94903
2577.52303	0.94918
2575.46922	0.94953
2573.41542	0.95010
2571.36162	0.95024
2569.30781	0.94994
2567.25401	0.94975
2565.20021	0.94964
2563.14640	0.94920
2561.09260	0.94906
2559.03880	0.94962
2556.98500	0.95004
2554.93119	0.94981
2552.87739	0.94901
2550.82359	0.94838
2548.76978	0.94859
2546.71598	0.94943
2544.66218	0.95028
2542.60837	0.95030
2540.55457	0.94977
2538.50077	0.94980
2536.44696	0.95032
2534.39316	0.95068
2532.33936	0.95062
2530.28555	0.95025
2528.23175	0.95001
2526.17795	0.94991
2524.12414	0.94981
2522.07034	0.94967
2520.01654	0.94954
2517.96273	0.95006
2515.90893	0.95086
2513.85513	0.95087
2511.80132	0.95089
2509.74752	0.95150
2507.69372	0.95154
2505.63992	0.95100
2503.58611	0.95080
2501.53231	0.95042
2499.47851	0.94954
2497.42470	0.94925
2495.37090	0.95005
2493.31710	0.95113
2491.26329	0.95122
2489.20949	0.95037
2487.15569	0.95007
2485.10188	0.95052
2483.04808	0.95079
2480.99428	0.95106
2478.94047	0.95136
2476.88667	0.95120
2474.83287	0.95068
2472.77906	0.95033
2470.72526	0.95058
2468.67146	0.95127
2466.61765	0.95180
2464.56385	0.95184
2462.51005	0.95176
2460.45624	0.95160
2458.40244	0.95151
2456.34864	0.95218
2454.29483	0.95280
2452.24103	0.95256
2450.18723	0.95188
2448.13343	0.95124
2446.07962	0.95115
2444.02582	0.95159
2441.97202	0.95221
2439.91821	0.95252
2437.86441	0.95229
2435.81061	0.95216
2433.75680	0.95242
2431.70300	0.95249
2429.64920	0.95231
2427.59539	0.95219
2425.54159	0.95221
2423.48779	0.95267
2421.43398	0.95333
2419.38018	0.95340
2417.32638	0.95293
2415.27257	0.95253
2413.21877	0.95216
2411.16497	0.95199
2409.11116	0.95221
2407.05736	0.95233
2405.00356	0.95229
2402.94975	0.95195
2400.89595	0.95174
2398.84215	0.95258
2396.78834	0.95340
2394.73454	0.95308
2392.68074	0.95243
2390.62694	0.95226
2388.57313	0.95223
2386.51933	0.95192
2384.46553	0.95193
2382.41172	0.95251
2380.35792	0.95282
2378.30412	0.95262
2376.25031	0.95268
2374.19651	0.95293
2372.14271	0.95277
2370.08890	0.95225
2368.03510	0.95151
2365.98130	0.95128
2363.92749	0.95166
2361.87369	0.95134
2359.81989	0.95033
2357.76608	0.95053
2355.71228	0.95190
2353.65848	0.95200
2351.60467	0.95113
2349.55087	0.95119
2347.49707	0.95197
2345.44326	0.95205
2343.38946	0.95091
2341.33566	0.95005
2339.28186	0.95052
2337.22805	0.95151
2335.17425	0.95186
2333.12045	0.95136
2331.06664	0.95042
2329.01284	0.94982
2326.95904	0.94970
2324.90523	0.94969
2322.85143	0.94998
2320.79763	0.95084
2318.74382	0.95182
2316.69002	0.95242
2314.63622	0.95270
2312.58241	0.95254
2310.52861	0.95186
2308.47481	0.95125
2306.42100	0.95112
2304.36720	0.95143
2302.31340	0.95214
2300.25959	0.95321
2298.20579	0.95431
2296.15199	0.95445
2294.09818	0.95350
2292.04438	0.95281
2289.99058	0.95246
2287.93677	0.95176
2285.88297	0.95149
2283.82917	0.95205
2281.77537	0.95265
2279.72156	0.95307
2277.66776	0.95347
2275.61396	0.95370
2273.56015	0.95388
2271.50635	0.95467
2269.45255	0.95564
2267.39874	0.95597
2265.34494	0.95554
2263.29114	0.95454
2261.23733	0.95370
2259.18353	0.95363
2257.12973	0.95417
2255.07592	0.95512
2253.02212	0.95530
2250.96832	0.95409
2248.91451	0.95413
2246.86071	0.95587
2244.80691	0.95678
2242.75310	0.95645
2240.69930	0.95514
2238.64550	0.95392
2236.59169	0.95430
2234.53789	0.95571
2232.48409	0.95672
2230.43029	0.95552
2228.37648	0.95317
2226.32268	0.95291
2224.26888	0.95412
2222.21507	0.95443
2220.16127	0.95459
2218.10747	0.95610
2216.05366	0.95664
2213.99986	0.95522
2211.94606	0.95463
2209.89225	0.95529
2207.83845	0.95557
2205.78465	0.95483
2203.73084	0.95432
2201.67704	0.95522
2199.62324	0.95655
2197.56943	0.95700
2195.51563	0.95620
2193.46183	0.95503
2191.40802	0.95500
2189.35422	0.95561
2187.30042	0.95561
2185.24661	0.95500
2183.19281	0.95386
2181.13901	0.95289
2179.08520	0.95258
2177.03140	0.95329
2174.97760	0.95433
2172.92380	0.95416
2170.86999	0.95438
2168.81619	0.95564
2166.76239	0.95683
2164.70858	0.95842
2162.65478	0.96043
2160.60098	0.96174
2158.54717	0.96211
2156.49337	0.96251
2154.43957	0.96233
2152.38576	0.96022
2150.33196	0.95864
2148.27816	0.96010
2146.22435	0.96137
2144.17055	0.95992
2142.11675	0.95861
2140.06294	0.95921
2138.00914	0.95934
2135.95534	0.95797
2133.90153	0.95707
2131.84773	0.95749
2129.79393	0.95822
2127.74012	0.95845
2125.68632	0.95826
2123.63252	0.95720
2121.57871	0.95578
2119.52491	0.95557
2117.47111	0.95573
2115.41731	0.95570
2113.36350	0.95639
2111.30970	0.95795
2109.25590	0.95920
2107.20209	0.95870
2105.14829	0.95703
2103.09449	0.95597
2101.04068	0.95585
2098.98688	0.95606
2096.93308	0.95610
2094.87927	0.95546
2092.82547	0.95542
2090.77167	0.95635
2088.71786	0.95648
2086.66406	0.95680
2084.61026	0.95779
2082.55645	0.95815
2080.50265	0.95805
2078.44885	0.95772
2076.39504	0.95782
2074.34124	0.95843
2072.28744	0.95832
2070.23363	0.95790
2068.17983	0.95830
2066.12603	0.95910
2064.07223	0.95939
2062.01842	0.95982
2059.96462	0.96015
2057.91082	0.95968
2055.85701	0.95870
2053.80321	0.95671
2051.74941	0.95450
2049.69560	0.95409
2047.64180	0.95619
2045.58800	0.95890
2043.53419	0.95998
2041.48039	0.95936
2039.42659	0.95885
2037.37278	0.96046
2035.31898	0.96355
2033.26518	0.96591
2031.21137	0.96643
2029.15757	0.96423
2027.10377	0.96038
2025.04996	0.96092
2022.99616	0.96462
2020.94236	0.96471
2018.88855	0.96461
2016.83475	0.96552
2014.78095	0.96322
2012.72714	0.96131
2010.67334	0.96363
2008.61954	0.96535
2006.56574	0.96383
2004.51193	0.96290
2002.45813	0.96260
2000.40433	0.96143
1998.35052	0.96018
1996.29672	0.96039
1994.24292	0.96199
1992.18911	0.96341
1990.13531	0.96412
1988.08151	0.96325
1986.02770	0.96084
1983.97390	0.95982
1981.92010	0.96152
1979.86629	0.96329
1977.81249	0.96283
1975.75869	0.96094
1973.70488	0.96020
1971.65108	0.96181
1969.59728	0.96337
1967.54347	0.96291
1965.48967	0.96169
1963.43587	0.96098
1961.38206	0.96061
1959.32826	0.96022
1957.27446	0.95998
1955.22066	0.95998
1953.16685	0.95979
1951.11305	0.95883
1949.05925	0.95742
1947.00544	0.95662
1944.95164	0.95668
1942.89784	0.95726
1940.84403	0.95786
1938.79023	0.95833
1936.73643	0.95875
1934.68262	0.95901
1932.62882	0.95906
1930.57502	0.95939
1928.52121	0.96046
1926.46741	0.96140
1924.41361	0.96121
1922.35980	0.96018
1920.30600	0.95967
1918.25220	0.95957
1916.19839	0.95861
1914.14459	0.95771
1912.09079	0.95774
1910.03698	0.95823
1907.98318	0.95884
1905.92938	0.95916
1903.87557	0.95930
1901.82177	0.95965
1899.76797	0.95996
1897.71417	0.95979
1895.66036	0.95943
1893.60656	0.95942
1891.55276	0.95941
1889.49895	0.95874
1887.44515	0.95797
1885.39135	0.95745
1883.33754	0.95668
1881.28374	0.95615
1879.22994	0.95616
1877.17613	0.95640
1875.12233	0.95683
1873.06853	0.95692
1871.01472	0.95633
1868.96092	0.95591
1866.90712	0.95629
1864.85331	0.95695
1862.79951	0.95736
1860.74571	0.95744
1858.69190	0.95737
1856.63810	0.95717
1854.58430	0.95729
1852.53049	0.95816
1850.47669	0.95924
1848.42289	0.95982
1846.36908	0.96000
1844.31528	0.96003
1842.26148	0.95964
1840.20768	0.95921
1838.15387	0.95918
1836.10007	0.95951
1834.04627	0.95947
1831.99246	0.95890
1829.93866	0.95862
1827.88486	0.95879
1825.83105	0.95914
1823.77725	0.95913
1821.72345	0.95842
1819.66964	0.95788
1817.61584	0.95778
1815.56204	0.95759
1813.50823	0.95700
1811.45443	0.95623
1809.40063	0.95593
1807.34682	0.95593
1805.29302	0.95579
1803.23922	0.95559
1801.18541	0.95555
1799.13161	0.95583
1797.07781	0.95619
1795.02400	0.95648
1792.97020	0.95666
1790.91640	0.95679
1788.86260	0.95698
1786.80879	0.95738
1784.75499	0.95826
1782.70119	0.95888
1780.64738	0.95856
1778.59358	0.95806
1776.53978	0.95786
1774.48597	0.95769
1772.43217	0.95776
1770.37837	0.95792
1768.32456	0.95792
1766.27076	0.95801
1764.21696	0.95779
1762.16315	0.95696
1760.10935	0.95612
1758.05555	0.95547
1756.00174	0.95440
1753.94794	0.95307
1751.89414	0.95166
1749.84033	0.95000
1747.78653	0.94860
1745.73273	0.94773
1743.67892	0.94743
1741.62512	0.94756
1739.57132	0.94767
1737.51751	0.94775
1735.46371	0.94806
1733.40991	0.94871
1731.35611	0.94930
1729.30230	0.94977
1727.24850	0.95017
1725.19470	0.95034
1723.14089	0.95060
1721.08709	0.95144
1719.03329	0.95239
1716.97948	0.95255
1714.92568	0.95237
1712.87188	0.95259
1710.81807	0.95280
1708.76427	0.95273
1706.71047	0.95254
1704.65666	0.95243
1702.60286	0.95230
1700.54906	0.95138
1698.49525	0.94988
1696.44145	0.94912
1694.38765	0.94871
1692.33384	0.94836
1690.28004	0.94777
1688.22624	0.94681
1686.17243	0.94569
1684.11863	0.94392
1682.06483	0.94237
1680.01103	0.94178
1677.95722	0.94134
1675.90342	0.94022
1673.84962	0.93873
1671.79581	0.93784
1669.74201	0.93676
1667.68821	0.93578
1665.63440	0.93542
1663.58060	0.93468
1661.52680	0.93331
1659.47299	0.93219
1657.41919	0.93150
1655.36539	0.93097
1653.31158	0.93077
1651.25778	0.93167
1649.20398	0.93246
1647.15017	0.93207
1645.09637	0.93100
1643.04257	0.93048
1640.98876	0.93022
1638.93496	0.93022
1636.88116	0.93033
1634.82735	0.92947
1632.77355	0.92817
1630.71975	0.92733
1628.66594	0.92672
1626.61214	0.92644
1624.55834	0.92610
1622.50454	0.92535
1620.45073	0.92497
1618.39693	0.92466
1616.34313	0.92375
1614.28932	0.92313
1612.23552	0.92283
1610.18172	0.92154
1608.12791	0.91792
1606.07411	0.91179
1604.02031	0.90450
1601.96650	0.89898
1599.91270	0.89878
1597.85890	0.90349
1595.80509	0.90957
1593.75129	0.91430
1591.69749	0.91701
1589.64368	0.91815
1587.58988	0.91796
1585.53608	0.91653
1583.48227	0.91477
1581.42847	0.91434
1579.37467	0.91569
1577.32086	0.91805
1575.26706	0.92042
1573.21326	0.92241
1571.15945	0.92463
1569.10565	0.92704
1567.05185	0.92893
1564.99805	0.93042
1562.94424	0.93167
1560.89044	0.93269
1558.83664	0.93343
1556.78283	0.93365
1554.72903	0.93385
1552.67523	0.93390
1550.62142	0.93348
1548.56762	0.93275
1546.51382	0.93211
1544.46001	0.93106
1542.40621	0.92915
1540.35241	0.92748
1538.29860	0.92814
1536.24480	0.93012
1534.19100	0.93270
1532.13719	0.93529
1530.08339	0.93680
1528.02959	0.93760
1525.97578	0.93801
1523.92198	0.93822
1521.86818	0.93840
1519.81437	0.93880
1517.76057	0.93910
1515.70677	0.93920
1513.65297	0.93933
1511.59916	0.93949
1509.54536	0.93958
1507.49156	0.93943
1505.43775	0.93829
1503.38395	0.93644
1501.33015	0.93368
1499.27634	0.92693
1497.22254	0.90787
1495.16874	0.87962
1493.11493	0.86309
1491.06113	0.86635
1489.00733	0.88669
1486.95352	0.90461
1484.89972	0.91302
1482.84592	0.91721
1480.79211	0.91930
1478.73831	0.91979
1476.68451	0.91934
1474.63070	0.91852
1472.57690	0.91763
1470.52310	0.91682
1468.46929	0.91622
1466.41549	0.91599
1464.36169	0.91612
1462.30788	0.91618
1460.25408	0.91534
1458.20028	0.90754
1456.14648	0.88204
1454.09267	0.85865
1452.03887	0.84952
1449.98507	0.85341
1447.93126	0.86529
1445.87746	0.87680
1443.82366	0.88538
1441.76985	0.89219
1439.71605	0.89738
1437.66225	0.90210
1435.60844	0.90682
1433.55464	0.91023
1431.50084	0.91293
1429.44703	0.91542
1427.39323	0.91726
1425.33943	0.91821
1423.28562	0.91849
1421.23182	0.91847
1419.17802	0.91853
1417.12421	0.91951
1415.07041	0.92150
1413.01661	0.92375
1410.96280	0.92575
1408.90900	0.92744
1406.85520	0.92905
1404.80139	0.93071
1402.74759	0.93233
1400.69379	0.93389
1398.63999	0.93535
1396.58618	0.93637
1394.53238	0.93657
1392.47858	0.93619
1390.42477	0.93582
1388.37097	0.93547
1386.31717	0.93496
1384.26336	0.93416
1382.20956	0.93309
1380.15576	0.93191
1378.10195	0.93107
1376.04815	0.93076
1373.99435	0.93077
1371.94054	0.93089
1369.88674	0.93101
1367.83294	0.93107
1365.77913	0.93119
1363.72533	0.93166
1361.67153	0.93255
1359.61772	0.93389
1357.56392	0.93534
1355.51012	0.93627
1353.45631	0.93656
1351.40251	0.93670
1349.34871	0.93700
1347.29491	0.93760
1345.24110	0.93855
1343.18730	0.93951
1341.13350	0.94034
1339.07969	0.94093
1337.02589	0.94101
1334.97209	0.94083
1332.91828	0.94066
1330.86448	0.94053
1328.81068	0.94028
1326.75687	0.93990
1324.70307	0.93975
1322.64927	0.93999
1320.59546	0.94034
1318.54166	0.94056
1316.48786	0.94078
1314.43405	0.94102
1312.38025	0.94127
1310.32645	0.94168
1308.27264	0.94242
1306.21884	0.94332
1304.16504	0.94385
1302.11123	0.94407
1300.05743	0.94448
1298.00363	0.94489
1295.94982	0.94490
1293.89602	0.94490
1291.84222	0.94497
1289.78842	0.94486
1287.73461	0.94465
1285.68081	0.94450
1283.62701	0.94439
1281.57320	0.94403
1279.51940	0.94326
1277.46560	0.94216
1275.41179	0.94114
1273.35799	0.94068
1271.30419	0.94057
1269.25038	0.94068
1267.19658	0.94136
1265.14278	0.94231
1263.08897	0.94305
1261.03517	0.94358
1258.98137	0.94410
1256.92756	0.94446
1254.87376	0.94436
1252.81996	0.94385
1250.76615	0.94333
1248.71235	0.94307
1246.65855	0.94310
1244.60474	0.94323
1242.55094	0.94314
1240.49714	0.94299
1238.44334	0.94297
1236.38953	0.94288
1234.33573	0.94268
1232.28193	0.94244
1230.22812	0.94214
1228.17432	0.94158
1226.12052	0.94073
1224.06671	0.93982
1222.01291	0.93911
1219.95911	0.93862
1217.90530	0.93800
1215.85150	0.93681
1213.79770	0.93512
1211.74389	0.93326
1209.69009	0.93134
1207.63629	0.92938
1205.58248	0.92763
1203.52868	0.92583
1201.47488	0.92340
1199.42107	0.92036
1197.36727	0.91718
1195.31347	0.91434
1193.25966	0.91182
1191.20586	0.90919
1189.15206	0.90616
1187.09825	0.90259
1185.04445	0.89850
1182.99065	0.89450
1180.93685	0.89136
1178.88304	0.88940
1176.82924	0.88810
1174.77544	0.88640
1172.72163	0.88396
1170.66783	0.88142
1168.61403	0.87905
1166.56022	0.87662
1164.50642	0.87419
1162.45262	0.87224
1160.39881	0.87063
1158.34501	0.86828
1156.29121	0.86498
1154.23740	0.86211
1152.18360	0.86087
1150.12980	0.86078
1148.07599	0.86073
1146.02219	0.86025
1143.96839	0.85927
1141.91458	0.85800
1139.86078	0.85684
1137.80698	0.85589
1135.75317	0.85472
1133.69937	0.85288
1131.64557	0.85053
1129.59176	0.84778
1127.53796	0.84469
1125.48416	0.84138
1123.43036	0.83718
1121.37655	0.83160
1119.32275	0.82532
1117.26895	0.81939
1115.21514	0.81421
1113.16134	0.80925
1111.10754	0.80426
1109.05373	0.79969
1106.99993	0.79590
1104.94613	0.79275
1102.89232	0.78980
1100.83852	0.78689
1098.78472	0.78419
1096.73091	0.78163
1094.67711	0.77889
1092.62331	0.77616
1090.56950	0.77416
1088.51570	0.77307
1086.46190	0.77217
1084.40809	0.77065
1082.35429	0.76830
1080.30049	0.76533
1078.24668	0.76245
1076.19288	0.76005
1074.13908	0.75754
1072.08528	0.75435
1070.03147	0.75066
1067.97767	0.74700
1065.92387	0.74359
1063.87006	0.74020
1061.81626	0.73680
1059.76246	0.73361
1057.70865	0.73035
1055.65485	0.72614
1053.60105	0.72040
1051.54724	0.71352
1049.49344	0.70649
1047.43964	0.69984
1045.38583	0.69299
1043.33203	0.68496
1041.27823	0.67570
1039.22442	0.66589
1037.17062	0.65593
1035.11682	0.64585
1033.06301	0.63578
1031.00921	0.62616
1028.95541	0.61767
1026.90160	0.61164
1024.84780	0.60883
1022.79400	0.60763
1020.74019	0.60620
1018.68639	0.60472
1016.63259	0.60332
1014.57879	0.60120
1012.52498	0.59858
1010.47118	0.59631
1008.41738	0.59422
1006.36357	0.59212
1004.30977	0.59066
1002.25597	0.59053
1000.20216	0.59170
998.14836	0.59375
996.09456	0.59665
994.04075	0.60049
991.98695	0.60505
989.93315	0.60969
987.87934	0.61403
985.82554	0.61881
983.77174	0.62494
981.71793	0.63228
979.66413	0.64021
977.61033	0.64867
975.55652	0.65785
973.50272	0.66763
971.44892	0.67770
969.39511	0.68776
967.34131	0.69741
965.28751	0.70631
963.23371	0.71444
961.17990	0.72231
959.12610	0.73046
957.07230	0.73850
955.01849	0.74539
952.96469	0.75111
950.91089	0.75634
948.85708	0.76081
946.80328	0.76443
944.74948	0.76787
942.69567	0.77146
940.64187	0.77533
938.58807	0.77929
936.53426	0.78271
934.48046	0.78560
932.42666	0.78879
930.37285	0.79262
928.31905	0.79643
926.26525	0.79910
924.21144	0.80008
922.15764	0.80006
920.10384	0.79976
918.05003	0.79910
915.99623	0.79774
913.94243	0.79588
911.88862	0.79401
909.83482	0.79254
907.78102	0.79302
905.72722	0.79664
903.67341	0.80327
901.61961	0.81187
899.56581	0.82113
897.51200	0.82975
895.45820	0.83668
893.40440	0.84266
891.35059	0.84834
889.29679	0.85277
887.24299	0.85562
885.18918	0.85760
883.13538	0.85893
881.08158	0.85913
879.02777	0.85844
876.97397	0.85857
874.92017	0.86083
872.86636	0.86451
870.81256	0.86845
868.75876	0.87197
866.70495	0.87483
864.65115	0.87738
862.59735	0.87979
860.54354	0.88194
858.48974	0.88370
856.43594	0.88544
854.38213	0.88767
852.32833	0.88978
850.27453	0.89134
848.22073	0.89253
846.16692	0.89256
844.11312	0.89093
842.05932	0.88845
840.00551	0.88640
837.95171	0.88596
835.89791	0.88707
833.84410	0.88829
831.79030	0.88834
829.73650	0.88751
827.68269	0.88714
825.62889	0.88793
823.57509	0.88920
821.52128	0.89000
819.46748	0.89039
817.41368	0.89114
815.35987	0.89190
813.30607	0.89117
811.25227	0.88946
809.19846	0.88771
807.14466	0.88396
805.09086	0.87756
803.03705	0.87086
800.98325	0.86575
798.92945	0.86357
796.87565	0.86407
794.82184	0.86527
792.76804	0.86582
790.71424	0.86574
788.66043	0.86530
786.60663	0.86449
784.55283	0.86300
782.49902	0.86018
780.44522	0.85593
778.39142	0.85104
776.33761	0.84624
774.28381	0.84126
772.23001	0.83527
770.17620	0.82739
768.12240	0.81687
766.06860	0.80458
764.01479	0.79188
761.96099	0.77936
759.90719	0.76816
757.85338	0.76007
755.79958	0.75561
753.74578	0.75381
751.69197	0.75380
749.63817	0.75529
747.58437	0.75857
745.53056	0.76519
743.47676	0.77707
741.42296	0.79286
739.36916	0.80828
737.31535	0.82125
735.26155	0.83254
733.20775	0.84275
731.15394	0.85126
729.10014	0.85687
727.04634	0.85970
724.99253	0.86094
722.93873	0.86166
720.88493	0.86337
718.83112	0.86655
716.77732	0.86902
714.72352	0.86869
712.66971	0.86458
710.61591	0.85432
708.56211	0.83422
706.50830	0.79992
704.45450	0.74876
702.40070	0.68356
700.34689	0.61081
698.29309	0.54319
696.23929	0.50836
694.18548	0.53225
692.13168	0.60144
690.07788	0.67361
688.02408	0.72343
685.97027	0.75202
683.91647	0.76906
681.86267	0.78190
679.80886	0.79214
677.75506	0.79865
675.70126	0.80217
673.64745	0.80417
671.59365	0.80535
669.53985	0.80750
667.48604	0.81208
665.43224	0.81533
663.37844	0.81669
661.32463	0.81758
659.27083	0.81765
657.21703	0.81698
655.16322	0.81590
653.10942	0.81397
651.05562	0.81167
649.00181	0.80975
646.94801	0.80886
644.89421	0.81035
642.84040	0.81410
640.78660	0.81818
638.73280	0.82046
636.67899	0.82083
634.62519	0.82076
632.57139	0.82004
630.51759	0.81894
628.46378	0.81902
626.40998	0.82001
624.35618	0.82041
622.30237	0.81876
620.24857	0.81543
618.19477	0.81264
616.14096	0.81078
614.08716	0.80929
612.03336	0.80851
609.97955	0.80740
607.92575	0.80520
605.87195	0.80243
603.81814	0.79891
601.76434	0.79500
599.71054	0.79212
597.65673	0.79006
595.60293	0.78703
593.54913	0.78279
591.49532	0.77886
589.44152	0.77681
587.38772	0.77682
585.33391	0.77767
583.28011	0.77759
581.22631	0.77547
579.17250	0.77198
577.11870	0.76838
575.06490	0.76587
573.01110	0.76492
570.95729	0.76222
568.90349	0.75473
566.84969	0.74524
564.79588	0.73692
562.74208	0.73039
560.68828	0.72531
558.63447	0.71969
556.58067	0.71172
554.52687	0.70227
552.47306	0.69394
550.41926	0.68659
548.36546	0.67762
546.31165	0.66707
544.25785	0.65584
542.20405	0.64216
540.15024	0.62660
538.09644	0.61418
536.04264	0.60783
533.98883	0.60674
531.93503	0.60860
529.88123	0.61104
527.82742	0.61375
525.77362	0.61739
523.71982	0.62243
521.66602	0.62965
519.61221	0.63823
517.55841	0.64454
515.50461	0.64711
513.45080	0.64859
511.39700	0.65208
509.34320	0.66014
507.28939	0.67130
505.23559	0.67883
503.18179	0.67823
501.12798	0.67436
499.07418	0.67453
497.02038	0.67802
494.96657	0.68046
492.91277	0.67829
490.85897	0.67047
488.80516	0.65858
486.75136	0.64486
484.69756	0.63052
482.64375	0.61663
480.58995	0.60281
478.53615	0.58587
476.48234	0.56627
474.42854	0.54848
472.37474	0.53475
470.32093	0.52669
468.26713	0.52459
466.21333	0.52474
464.15953	0.52469
462.10572	0.52708
460.05192	0.53264
457.99812	0.54175
455.94431	0.55495
453.89051	0.56573
451.83671	0.57150
449.78290	0.57437
447.72910	0.57466
445.67530	0.57561
443.62149	0.58180
441.56769	0.58731
439.51389	0.58649
437.46008	0.58076
435.40628	0.57107
433.35248	0.56311
431.29867	0.56248
429.24487	0.56792
427.19107	0.57231
425.13726	0.57154
423.08346	0.56792
421.02966	0.56446
418.97585	0.56813
416.92205	0.57868
414.86825	0.58558
412.81445	0.58973
410.76064	0.59264
408.70684	0.59436
406.65304	0.59598
404.59923	0.60491
402.54543	0.61964
400.49163	0.62367
398.43782	0.61132
