3996.70104	0.97138
3994.64724	0.97138
3992.59344	0.97199
3990.53964	0.97228
3988.48583	0.97199
3986.43203	0.97131
3984.37823	0.97090
3982.32442	0.97121
3980.27062	0.97164
3978.21682	0.97200
3976.16301	0.97259
3974.10921	0.97262
3972.05541	0.97180
3970.00160	0.97106
3967.94780	0.97091
3965.89400	0.97113
3963.84019	0.97134
3961.78639	0.97150
3959.73259	0.97161
3957.67878	0.97170
3955.62498	0.97202
3953.57118	0.97250
3951.51737	0.97243
3949.46357	0.97168
3947.40977	0.97115
3945.35596	0.97118
3943.30216	0.97129
3941.24836	0.97140
3939.19455	0.97173
3937.14075	0.97199
3935.08695	0.97198
3933.03315	0.97176
3930.97934	0.97160
3928.92554	0.97203
3926.87174	0.97251
3924.81793	0.97211
3922.76413	0.97152
3920.71033	0.97153
3918.65652	0.97144
3916.60272	0.97173
3914.54892	0.97263
3912.49511	0.97280
3910.44131	0.97225
3908.38751	0.97177
3906.33370	0.97174
3904.27990	0.97209
3902.22610	0.97218
3900.17229	0.97186
3898.11849	0.97181
3896.06469	0.97167
3894.01088	0.97111
3891.95708	0.97130
3889.90328	0.97220
3887.84947	0.97231
3885.79567	0.97208
3883.74187	0.97259
3881.68807	0.97361
3879.63426	0.97374
3877.58046	0.97255
3875.52666	0.97159
3873.47285	0.97176
3871.41905	0.97237
3869.36525	0.97240
3867.31144	0.97210
3865.25764	0.97182
3863.20384	0.97176
3861.15003	0.97210
3859.09623	0.97241
3857.04243	0.97283
3854.98862	0.97345
3852.93482	0.97309
3850.88102	0.97257
3848.82721	0.97287
3846.77341	0.97304
3844.71961	0.97277
3842.66580	0.97246
3840.61200	0.97240
3838.55820	0.97229
3836.50439	0.97205
3834.45059	0.97213
3832.39679	0.97261
3830.34298	0.97305
3828.28918	0.97345
3826.23538	0.97409
3824.18158	0.97445
3822.12777	0.97412
3820.07397	0.97341
3818.02017	0.97307
3815.96636	0.97303
3813.91256	0.97293
3811.85876	0.97263
3809.80495	0.97208
3807.75115	0.97161
3805.69735	0.97214
3803.64354	0.97318
3801.58974	0.97327
3799.53594	0.97249
3797.48213	0.97209
3795.42833	0.97236
3793.37453	0.97288
3791.32072	0.97316
3789.26692	0.97323
3787.21312	0.97321
3785.15931	0.97318
3783.10551	0.97325
3781.05171	0.97333
3778.99790	0.97355
3776.94410	0.97373
3774.89030	0.97337
3772.83650	0.97252
3770.78269	0.97213
3768.72889	0.97279
3766.67509	0.97304
3764.62128	0.97239
3762.56748	0.97216
3760.51368	0.97274
3758.45987	0.97350
3756.40607	0.97366
3754.35227	0.97293
3752.29846	0.97193
3750.24466	0.97221
3748.19086	0.97373
3746.13705	0.97486
3744.08325	0.97514
3742.02945	0.97457
3739.97564	0.97376
3737.92184	0.97353
3735.86804	0.97419
3733.81423	0.97418
3731.76043	0.97348
3729.70663	0.97296
3727.65282	0.97200
3725.59902	0.97109
3723.54522	0.97109
3721.49141	0.97132
3719.43761	0.97098
3717.38381	0.97026
3715.33001	0.96978
3713.27620	0.96915
3711.22240	0.96709
3709.16860	0.96428
3707.11479	0.96225
3705.06099	0.96050
3703.00719	0.95824
3700.95338	0.95572
3698.89958	0.95385
3696.84578	0.95282
3694.79197	0.95265
3692.73817	0.95336
3690.68437	0.95474
3688.63056	0.95675
3686.57676	0.95822
3684.52296	0.95880
3682.46915	0.95940
3680.41535	0.96057
3678.36155	0.96205
3676.30774	0.96229
3674.25394	0.96071
3672.20014	0.95974
3670.14633	0.95923
3668.09253	0.95839
3666.03873	0.95776
3663.98492	0.95727
3661.93112	0.95653
3659.87732	0.95568
3657.82352	0.95493
3655.76971	0.95400
3653.71591	0.95319
3651.66211	0.95290
3649.60830	0.95248
3647.55450	0.95129
3645.50070	0.95010
3643.44689	0.94963
3641.39309	0.94966
3639.33929	0.94947
3637.28548	0.94883
3635.23168	0.94767
3633.17788	0.94602
3631.12407	0.94390
3629.07027	0.94129
3627.01647	0.94001
3624.96266	0.93988
3622.90886	0.93951
3620.85506	0.93887
3618.80125	0.93833
3616.74745	0.93845
3614.69365	0.93906
3612.63984	0.93943
3610.58604	0.93900
3608.53224	0.93808
3606.47844	0.93766
3604.42463	0.93775
3602.37083	0.93748
3600.31703	0.93681
3598.26322	0.93607
3596.20942	0.93559
3594.15562	0.93552
3592.10181	0.93525
3590.04801	0.93443
3587.99421	0.93338
3585.94040	0.93295
3583.88660	0.93336
3581.83280	0.93381
3579.77899	0.93330
3577.72519	0.93176
3575.67139	0.93077
3573.61758	0.93073
3571.56378	0.93043
3569.50998	0.92986
3567.45617	0.92939
3565.40237	0.92857
3563.34857	0.92727
3561.29476	0.92572
3559.24096	0.92463
3557.18716	0.92430
3555.13335	0.92392
3553.07955	0.92315
3551.02575	0.92265
3548.97195	0.92246
3546.91814	0.92198
3544.86434	0.92161
3542.81054	0.92164
3540.75673	0.92090
3538.70293	0.91962
3536.64913	0.91898
3534.59532	0.91843
3532.54152	0.91762
3530.48772	0.91721
3528.43391	0.91717
3526.38011	0.91696
3524.32631	0.91620
3522.27250	0.91526
3520.21870	0.91453
3518.16490	0.91336
3516.11109	0.91215
3514.05729	0.91189
3512.00349	0.91183
3509.94968	0.91128
3507.89588	0.91099
3505.84208	0.91118
3503.78827	0.91093
3501.73447	0.90990
3499.68067	0.90895
3497.62687	0.90839
3495.57306	0.90772
3493.51926	0.90688
3491.46546	0.90600
3489.41165	0.90490
3487.35785	0.90428
3485.30405	0.90453
3483.25024	0.90423
3481.19644	0.90320
3479.14264	0.90230
3477.08883	0.90152
3475.03503	0.90110
3472.98123	0.90097
3470.92742	0.90051
3468.87362	0.89955
3466.81982	0.89844
3464.76601	0.89780
3462.71221	0.89737
3460.65841	0.89680
3458.60460	0.89634
3456.55080	0.89584
3454.49700	0.89530
3452.44319	0.89494
3450.38939	0.89430
3448.33559	0.89323
3446.28178	0.89234
3444.22798	0.89198
3442.17418	0.89177
3440.12038	0.89115
3438.06657	0.89052
3436.01277	0.89056
3433.95897	0.89067
3431.90516	0.88981
3429.85136	0.88855
3427.79756	0.88773
3425.74375	0.88698
3423.68995	0.88616
3421.63615	0.88573
3419.58234	0.88572
3417.52854	0.88568
3415.47474	0.88520
3413.42093	0.88458
3411.36713	0.88429
3409.31333	0.88418
3407.25952	0.88399
3405.20572	0.88363
3403.15192	0.88317
3401.09811	0.88269
3399.04431	0.88229
3396.99051	0.88212
3394.93670	0.88207
3392.88290	0.88184
3390.82910	0.88152
3388.77529	0.88156
3386.72149	0.88183
3384.66769	0.88163
3382.61389	0.88094
3380.56008	0.88042
3378.50628	0.88045
3376.45248	0.88084
3374.39867	0.88102
3372.34487	0.88086
3370.29107	0.88070
3368.23726	0.88057
3366.18346	0.88068
3364.12966	0.88107
3362.07585	0.88142
3360.02205	0.88154
3357.96825	0.88127
3355.91444	0.88100
3353.86064	0.88115
3351.80684	0.88139
3349.75303	0.88172
3347.69923	0.88214
3345.64543	0.88215
3343.59162	0.88216
3341.53782	0.88268
3339.48402	0.88320
3337.43021	0.88332
3335.37641	0.88315
3333.32261	0.88304
3331.26881	0.88332
3329.21500	0.88387
3327.16120	0.88426
3325.10740	0.88428
3323.05359	0.88431
3320.99979	0.88481
3318.94599	0.88542
3316.89218	0.88572
3314.83838	0.88607
3312.78458	0.88651
3310.73077	0.88690
3308.67697	0.88734
3306.62317	0.88771
3304.56936	0.88779
3302.51556	0.88749
3300.46176	0.88694
3298.40795	0.88662
3296.35415	0.88699
3294.30035	0.88786
3292.24654	0.88851
3290.19274	0.88871
3288.13894	0.88876
3286.08513	0.88890
3284.03133	0.88921
3281.97753	0.88965
3279.92372	0.89023
3277.86992	0.89094
3275.81612	0.89149
3273.76232	0.89185
3271.70851	0.89211
3269.65471	0.89233
3267.60091	0.89256
3265.54710	0.89259
3263.49330	0.89250
3261.43950	0.89256
3259.38569	0.89292
3257.33189	0.89358
3255.27809	0.89430
3253.22428	0.89482
3251.17048	0.89515
3249.11668	0.89583
3247.06287	0.89672
3245.00907	0.89728
3242.95527	0.89782
3240.90146	0.89872
3238.84766	0.89931
3236.79386	0.89931
3234.74005	0.89965
3232.68625	0.90025
3230.63245	0.90058
3228.57864	0.90100
3226.52484	0.90159
3224.47104	0.90227
3222.41724	0.90291
3220.36343	0.90347
3218.30963	0.90410
3216.25583	0.90469
3214.20202	0.90507
3212.14822	0.90539
3210.09442	0.90574
3208.04061	0.90616
3205.98681	0.90680
3203.93301	0.90750
3201.87920	0.90796
3199.82540	0.90839
3197.77160	0.90924
3195.71779	0.91031
3193.66399	0.91129
3191.61019	0.91199
3189.55638	0.91269
3187.50258	0.91350
3185.44878	0.91380
3183.39497	0.91405
3181.34117	0.91495
3179.28737	0.91562
3177.23356	0.91568
3175.17976	0.91599
3173.12596	0.91662
3171.07215	0.91714
3169.01835	0.91791
3166.96455	0.91880
3164.91075	0.91941
3162.85694	0.91994
3160.80314	0.92056
3158.74934	0.92122
3156.69553	0.92208
3154.64173	0.92310
3152.58793	0.92404
3150.53412	0.92472
3148.48032	0.92518
3146.42652	0.92558
3144.37271	0.92614
3142.31891	0.92682
3140.26511	0.92729
3138.21130	0.92765
3136.15750	0.92823
3134.10370	0.92881
3132.04989	0.92918
3129.99609	0.92968
3127.94229	0.93045
3125.88848	0.93102
3123.83468	0.93128
3121.78088	0.93179
3119.72707	0.93262
3117.67327	0.93330
3115.61947	0.93373
3113.56566	0.93405
3111.51186	0.93444
3109.45806	0.93499
3107.40426	0.93523
3105.35045	0.93510
3103.29665	0.93543
3101.24285	0.93635
3099.18904	0.93716
3097.13524	0.93769
3095.08144	0.93802
3093.02763	0.93789
3090.97383	0.93762
3088.92003	0.93788
3086.86622	0.93826
3084.81242	0.93836
3082.75862	0.93840
3080.70481	0.93851
3078.65101	0.93897
3076.59721	0.93968
3074.54340	0.94010
3072.48960	0.94024
3070.43580	0.94058
3068.38199	0.94097
3066.32819	0.94122
3064.27439	0.94168
3062.22058	0.94257
3060.16678	0.94357
3058.11298	0.94423
3056.05918	0.94440
3054.00537	0.94422
3051.95157	0.94413
3049.89777	0.94433
3047.84396	0.94484
3045.79016	0.94545
3043.73636	0.94591
3041.68255	0.94626
3039.62875	0.94670
3037.57495	0.94722
3035.52114	0.94764
3033.46734	0.94773
3031.41354	0.94744
3029.35973	0.94724
3027.30593	0.94790
3025.25213	0.94892
3023.19832	0.94898
3021.14452	0.94855
3019.09072	0.94869
3017.03691	0.94901
3014.98311	0.94927
3012.92931	0.94992
3010.87550	0.95081
3008.82170	0.95111
3006.76790	0.95072
3004.71409	0.95044
3002.66029	0.95060
3000.60649	0.95076
2998.55269	0.95098
2996.49888	0.95149
2994.44508	0.95193
2992.39128	0.95198
2990.33747	0.95174
2988.28367	0.95145
2986.22987	0.95131
2984.17606	0.95146
2982.12226	0.95180
2980.06846	0.95183
2978.01465	0.95112
2975.96085	0.95017
2973.90705	0.94945
2971.85324	0.94870
2969.79944	0.94771
2967.74564	0.94661
2965.69183	0.94554
2963.63803	0.94469
2961.58423	0.94402
2959.53042	0.94288
2957.47662	0.94111
2955.42282	0.93950
2953.36901	0.93832
2951.31521	0.93668
2949.26141	0.93389
2947.20761	0.92997
2945.15380	0.92494
2943.10000	0.91866
2941.04620	0.91058
2938.99239	0.90016
2936.93859	0.88759
2934.88479	0.87327
2932.83098	0.85688
2930.77718	0.83742
2928.72338	0.81436
2926.66957	0.78703
2924.61577	0.75411
2922.56197	0.71550
2920.50816	0.67379
2918.45436	0.63378
2916.40056	0.60350
2914.34675	0.59331
2912.29295	0.60640
2910.23915	0.63437
2908.18534	0.66593
2906.13154	0.69424
2904.07774	0.71717
2902.02393	0.73517
2899.97013	0.74954
2897.91633	0.76157
2895.86252	0.77243
2893.80872	0.78300
2891.75492	0.79356
2889.70112	0.80451
2887.64731	0.81607
2885.59351	0.82784
2883.53971	0.83978
2881.48590	0.85198
2879.43210	0.86417
2877.37830	0.87578
2875.32449	0.88582
2873.27069	0.89359
2871.21689	0.89902
2869.16308	0.90182
2867.10928	0.90186
2865.05548	0.89913
2863.00167	0.89240
2860.94787	0.88018
2858.89407	0.86145
2856.84026	0.83387
2854.78646	0.79362
2852.73266	0.73856
2850.67885	0.67571
2848.62505	0.62687
2846.57125	0.61515
2844.51744	0.64256
2842.46364	0.69100
2840.40984	0.74124
2838.35603	0.78342
2836.30223	0.81562
2834.24843	0.83952
2832.19463	0.85758
2830.14082	0.87168
2828.08702	0.88273
2826.03322	0.89149
2823.97941	0.89874
2821.92561	0.90501
2819.87181	0.91052
2817.81800	0.91503
2815.76420	0.91867
2813.71040	0.92204
2811.65659	0.92523
2809.60279	0.92799
2807.54899	0.93022
2805.49518	0.93200
2803.44138	0.93364
2801.38758	0.93532
2799.33377	0.93688
2797.27997	0.93834
2795.22617	0.93999
2793.17236	0.94174
2791.11856	0.94304
2789.06476	0.94380
2787.01095	0.94454
2784.95715	0.94566
2782.90335	0.94699
2780.84955	0.94812
2778.79574	0.94906
2776.74194	0.94981
2774.68814	0.95037
2772.63433	0.95083
2770.58053	0.95115
2768.52673	0.95158
2766.47292	0.95211
2764.41912	0.95267
2762.36532	0.95334
2760.31151	0.95350
2758.25771	0.95333
2756.20391	0.95381
2754.15010	0.95469
2752.09630	0.95539
2750.04250	0.95568
2747.98869	0.95567
2745.93489	0.95588
2743.88109	0.95615
2741.82728	0.95613
2739.77348	0.95614
2737.71968	0.95647
2735.66587	0.95677
2733.61207	0.95668
2731.55827	0.95641
2729.50446	0.95659
2727.45066	0.95728
2725.39686	0.95778
2723.34306	0.95794
2721.28925	0.95824
2719.23545	0.95881
2717.18165	0.95954
2715.12784	0.96015
2713.07404	0.96025
2711.02024	0.95989
2708.96643	0.95949
2706.91263	0.95940
2704.85883	0.95954
2702.80502	0.95978
2700.75122	0.96002
2698.69742	0.96019
2696.64361	0.96044
2694.58981	0.96090
2692.53601	0.96128
2690.48220	0.96116
2688.42840	0.96074
2686.37460	0.96072
2684.32079	0.96109
2682.26699	0.96121
2680.21319	0.96100
2678.15938	0.96098
2676.10558	0.96119
2674.05178	0.96132
2671.99797	0.96131
2669.94417	0.96121
2667.89037	0.96112
2665.83657	0.96102
2663.78276	0.96065
2661.72896	0.96048
2659.67516	0.96080
2657.62135	0.96115
2655.56755	0.96129
2653.51375	0.96136
2651.45994	0.96150
2649.40614	0.96174
2647.35234	0.96202
2645.29853	0.96211
2643.24473	0.96188
2641.19093	0.96160
2639.13712	0.96148
2637.08332	0.96151
2635.02952	0.96156
2632.97571	0.96164
2630.92191	0.96173
2628.86811	0.96200
2626.81430	0.96273
2624.76050	0.96352
2622.70670	0.96363
2620.65289	0.96338
2618.59909	0.96371
2616.54529	0.96433
2614.49149	0.96474
2612.43768	0.96512
2610.38388	0.96531
2608.33008	0.96521
2606.27627	0.96531
2604.22247	0.96562
2602.16867	0.96571
2600.11486	0.96553
2598.06106	0.96544
2596.00726	0.96597
2593.95345	0.96712
2591.89965	0.96774
2589.84585	0.96740
2587.79204	0.96722
2585.73824	0.96743
2583.68444	0.96730
2581.63063	0.96714
2579.57683	0.96746
2577.52303	0.96784
2575.46922	0.96775
2573.41542	0.96730
2571.36162	0.96707
2569.30781	0.96727
2567.25401	0.96761
2565.20021	0.96790
2563.14640	0.96812
2561.09260	0.96789
2559.03880	0.96725
2556.98500	0.96720
2554.93119	0.96771
2552.87739	0.96802
2550.82359	0.96811
2548.76978	0.96841
2546.71598	0.96936
2544.66218	0.96998
2542.60837	0.96949
2540.55457	0.96900
2538.50077	0.96920
2536.44696	0.96939
2534.39316	0.96903
2532.33936	0.96865
2530.28555	0.96882
2528.23175	0.96940
2526.17795	0.96983
2524.12414	0.96997
2522.07034	0.97032
2520.01654	0.97067
2517.96273	0.97053
2515.90893	0.97015
2513.85513	0.96997
2511.80132	0.97024
2509.74752	0.97056
2507.69372	0.97024
2505.63992	0.96978
2503.58611	0.96994
2501.53231	0.97031
2499.47851	0.97037
2497.42470	0.97032
2495.37090	0.97048
2493.31710	0.97051
2491.26329	0.97005
2489.20949	0.96969
2487.15569	0.96965
2485.10188	0.96953
2483.04808	0.96933
2480.99428	0.96907
2478.94047	0.96885
2476.88667	0.96903
2474.83287	0.96972
2472.77906	0.97034
2470.72526	0.97030
2468.67146	0.97017
2466.61765	0.97053
2464.56385	0.97096
2462.51005	0.97075
2460.45624	0.97011
2458.40244	0.96981
2456.34864	0.97022
2454.29483	0.97094
2452.24103	0.97092
2450.18723	0.97025
2448.13343	0.97009
2446.07962	0.97060
2444.02582	0.97091
2441.97202	0.97059
2439.91821	0.97026
2437.86441	0.97051
2435.81061	0.97091
2433.75680	0.97115
2431.70300	0.97132
2429.64920	0.97125
2427.59539	0.97081
2425.54159	0.97029
2423.48779	0.97013
2421.43398	0.97028
2419.38018	0.97061
2417.32638	0.97097
2415.27257	0.97108
2413.21877	0.97115
2411.16497	0.97098
2409.11116	0.97044
2407.05736	0.97017
2405.00356	0.97051
2402.94975	0.97120
2400.89595	0.97182
2398.84215	0.97200
2396.78834	0.97170
2394.73454	0.97166
2392.68074	0.97194
2390.62694	0.97209
2388.57313	0.97200
2386.51933	0.97155
2384.46553	0.97104
2382.41172	0.97070
2380.35792	0.97047
2378.30412	0.97043
2376.25031	0.97064
2374.19651	0.97127
2372.14271	0.97222
2370.08890	0.97232
2368.03510	0.97138
2365.98130	0.97102
2363.92749	0.97103
2361.87369	0.97107
2359.81989	0.97154
2357.76608	0.97102
2355.71228	0.96963
2353.65848	0.96905
2351.60467	0.96931
2349.55087	0.96964
2347.49707	0.96974
2345.44326	0.96963
2343.38946	0.96930
2341.33566	0.96842
2339.28186	0.96772
2337.22805	0.96796
2335.17425	0.96837
2333.12045	0.96857
2331.06664	0.96908
2329.01284	0.97005
2326.95904	0.97008
2324.90523	0.96846
2322.85143	0.96707
2320.79763	0.96785
2318.74382	0.96958
2316.69002	0.97026
2314.63622	0.97062
2312.58241	0.97102
2310.52861	0.97058
2308.47481	0.96980
2306.42100	0.96950
2304.36720	0.96949
2302.31340	0.96932
2300.25959	0.96931
2298.20579	0.96975
2296.15199	0.97021
2294.09818	0.97046
2292.04438	0.97035
2289.99058	0.97011
2287.93677	0.96997
2285.88297	0.96975
2283.82917	0.96960
2281.77537	0.96933
2279.72156	0.96943
2277.66776	0.97073
2275.61396	0.97155
2273.56015	0.97070
2271.50635	0.96999
2269.45255	0.97056
2267.39874	0.97127
2265.34494	0.97126
2263.29114	0.97086
2261.23733	0.97039
2259.18353	0.97021
2257.12973	0.97025
2255.07592	0.97052
2253.02212	0.97165
2250.96832	0.97296
2248.91451	0.97313
2246.86071	0.97173
2244.80691	0.97035
2242.75310	0.97023
2240.69930	0.97031
2238.64550	0.97079
2236.59169	0.97133
2234.53789	0.97057
2232.48409	0.96993
2230.43029	0.97081
2228.37648	0.97202
2226.32268	0.97202
2224.26888	0.97169
2222.21507	0.97260
2220.16127	0.97407
2218.10747	0.97440
2216.05366	0.97378
2213.99986	0.97424
2211.94606	0.97535
2209.89225	0.97504
2207.83845	0.97346
2205.78465	0.97164
2203.73084	0.97083
2201.67704	0.97178
2199.62324	0.97345
2197.56943	0.97516
2195.51563	0.97611
2193.46183	0.97417
2191.40802	0.97199
2189.35422	0.97298
2187.30042	0.97337
2185.24661	0.97181
2183.19281	0.97186
2181.13901	0.97306
2179.08520	0.97341
2177.03140	0.97401
2174.97760	0.97540
2172.92380	0.97542
2170.86999	0.97365
2168.81619	0.97190
2166.76239	0.97110
2164.70858	0.97090
2162.65478	0.97100
2160.60098	0.97197
2158.54717	0.97348
2156.49337	0.97587
2154.43957	0.97808
2152.38576	0.97686
2150.33196	0.97390
2148.27816	0.97245
2146.22435	0.97187
2144.17055	0.97173
2142.11675	0.97217
2140.06294	0.97215
2138.00914	0.97254
2135.95534	0.97451
2133.90153	0.97593
2131.84773	0.97540
2129.79393	0.97460
2127.74012	0.97449
2125.68632	0.97489
2123.63252	0.97529
2121.57871	0.97462
2119.52491	0.97304
2117.47111	0.97232
2115.41731	0.97241
2113.36350	0.97203
2111.30970	0.97235
2109.25590	0.97349
2107.20209	0.97361
2105.14829	0.97348
2103.09449	0.97391
2101.04068	0.97368
2098.98688	0.97288
2096.93308	0.97268
2094.87927	0.97294
2092.82547	0.97288
2090.77167	0.97270
2088.71786	0.97329
2086.66406	0.97395
2084.61026	0.97309
2082.55645	0.97120
2080.50265	0.96953
2078.44885	0.96940
2076.39504	0.97111
2074.34124	0.97278
2072.28744	0.97271
2070.23363	0.97181
2068.17983	0.97252
2066.12603	0.97389
2064.07223	0.97418
2062.01842	0.97500
2059.96462	0.97637
2057.91082	0.97642
2055.85701	0.97499
2053.80321	0.97282
2051.74941	0.97128
2049.69560	0.97167
2047.64180	0.97330
2045.58800	0.97416
2043.53419	0.97430
2041.48039	0.97440
2039.42659	0.97399
2037.37278	0.97379
2035.31898	0.97442
2033.26518	0.97496
2031.21137	0.97457
2029.15757	0.97460
2027.10377	0.97574
2025.04996	0.97681
2022.99616	0.97743
2020.94236	0.97637
2018.88855	0.97371
2016.83475	0.97267
2014.78095	0.97323
2012.72714	0.97250
2010.67334	0.97269
2008.61954	0.97613
2006.56574	0.97930
2004.51193	0.97872
2002.45813	0.97571
2000.40433	0.97394
1998.35052	0.97366
1996.29672	0.97370
1994.24292	0.97495
1992.18911	0.97559
1990.13531	0.97382
1988.08151	0.97289
1986.02770	0.97336
1983.97390	0.97272
1981.92010	0.97207
1979.86629	0.97373
1977.81249	0.97644
1975.75869	0.97751
1973.70488	0.97846
1971.65108	0.98002
1969.59728	0.97906
1967.54347	0.97704
1965.48967	0.97778
1963.43587	0.97954
1961.38206	0.97935
1959.32826	0.97743
1957.27446	0.97625
1955.22066	0.97635
1953.16685	0.97642
1951.11305	0.97632
1949.05925	0.97557
1947.00544	0.97469
1944.95164	0.97503
1942.89784	0.97560
1940.84403	0.97564
1938.79023	0.97601
1936.73643	0.97646
1934.68262	0.97666
1932.62882	0.97728
1930.57502	0.97759
1928.52121	0.97692
1926.46741	0.97611
1924.41361	0.97556
1922.35980	0.97506
1920.30600	0.97462
1918.25220	0.97434
1916.19839	0.97457
1914.14459	0.97505
1912.09079	0.97470
1910.03698	0.97406
1907.98318	0.97367
1905.92938	0.97289
1903.87557	0.97261
1901.82177	0.97354
1899.76797	0.97447
1897.71417	0.97449
1895.66036	0.97407
1893.60656	0.97372
1891.55276	0.97397
1889.49895	0.97492
1887.44515	0.97558
1885.39135	0.97533
1883.33754	0.97461
1881.28374	0.97412
1879.22994	0.97400
1877.17613	0.97430
1875.12233	0.97460
1873.06853	0.97438
1871.01472	0.97450
1868.96092	0.97539
1866.90712	0.97545
1864.85331	0.97452
1862.79951	0.97382
1860.74571	0.97365
1858.69190	0.97417
1856.63810	0.97486
1854.58430	0.97502
1852.53049	0.97503
1850.47669	0.97497
1848.42289	0.97482
1846.36908	0.97482
1844.31528	0.97495
1842.26148	0.97500
1840.20768	0.97512
1838.15387	0.97533
1836.10007	0.97525
1834.04627	0.97505
1831.99246	0.97481
1829.93866	0.97427
1827.88486	0.97391
1825.83105	0.97399
1823.77725	0.97408
1821.72345	0.97407
1819.66964	0.97397
1817.61584	0.97379
1815.56204	0.97353
1813.50823	0.97333
1811.45443	0.97338
1809.40063	0.97364
1807.34682	0.97385
1805.29302	0.97385
1803.23922	0.97391
1801.18541	0.97411
1799.13161	0.97376
1797.07781	0.97331
1795.02400	0.97330
1792.97020	0.97316
1790.91640	0.97297
1788.86260	0.97291
1786.80879	0.97285
1784.75499	0.97286
1782.70119	0.97280
1780.64738	0.97273
1778.59358	0.97268
1776.53978	0.97254
1774.48597	0.97233
1772.43217	0.97206
1770.37837	0.97177
1768.32456	0.97140
1766.27076	0.97087
1764.21696	0.97053
1762.16315	0.97035
1760.10935	0.96996
1758.05555	0.96961
1756.00174	0.96948
1753.94794	0.96925
1751.89414	0.96851
1749.84033	0.96744
1747.78653	0.96645
1745.73273	0.96514
1743.67892	0.96373
1741.62512	0.96292
1739.57132	0.96237
1737.51751	0.96154
1735.46371	0.96064
1733.40991	0.96026
1731.35611	0.96084
1729.30230	0.96109
1727.24850	0.96056
1725.19470	0.95984
1723.14089	0.95952
1721.08709	0.95970
1719.03329	0.95954
1716.97948	0.95833
1714.92568	0.95702
1712.87188	0.95607
1710.81807	0.95516
1708.76427	0.95443
1706.71047	0.95368
1704.65666	0.95259
1702.60286	0.95132
1700.54906	0.94925
1698.49525	0.94676
1696.44145	0.94484
1694.38765	0.94282
1692.33384	0.94098
1690.28004	0.93914
1688.22624	0.93739
1686.17243	0.93571
1684.11863	0.93254
1682.06483	0.92875
1680.01103	0.92601
1677.95722	0.92390
1675.90342	0.92193
1673.84962	0.91999
1671.79581	0.91855
1669.74201	0.91644
1667.68821	0.91354
1665.63440	0.91127
1663.58060	0.90913
1661.52680	0.90711
1659.47299	0.90572
1657.41919	0.90491
1655.36539	0.90424
1653.31158	0.90267
1651.25778	0.90163
1649.20398	0.90184
1647.15017	0.90169
1645.09637	0.90125
1643.04257	0.90148
1640.98876	0.90194
1638.93496	0.90213
1636.88116	0.90223
1634.82735	0.90241
1632.77355	0.90279
1630.71975	0.90360
1628.66594	0.90465
1626.61214	0.90570
1624.55834	0.90700
1622.50454	0.90874
1620.45073	0.91035
1618.39693	0.91204
1616.34313	0.91445
1614.28932	0.91667
1612.23552	0.91823
1610.18172	0.91961
1608.12791	0.92124
1606.07411	0.92315
1604.02031	0.92498
1601.96650	0.92644
1599.91270	0.92747
1597.85890	0.92838
1595.80509	0.92935
1593.75129	0.93040
1591.69749	0.93139
1589.64368	0.93234
1587.58988	0.93329
1585.53608	0.93387
1583.48227	0.93410
1581.42847	0.93465
1579.37467	0.93551
1577.32086	0.93602
1575.26706	0.93589
1573.21326	0.93562
1571.15945	0.93536
1569.10565	0.93533
1567.05185	0.93555
1564.99805	0.93546
1562.94424	0.93500
1560.89044	0.93458
1558.83664	0.93453
1556.78283	0.93462
1554.72903	0.93442
1552.67523	0.93425
1550.62142	0.93434
1548.56762	0.93471
1546.51382	0.93512
1544.46001	0.93548
1542.40621	0.93583
1540.35241	0.93616
1538.29860	0.93696
1536.24480	0.93788
1534.19100	0.93885
1532.13719	0.93999
1530.08339	0.94092
1528.02959	0.94200
1525.97578	0.94335
1523.92198	0.94423
1521.86818	0.94473
1519.81437	0.94556
1517.76057	0.94665
1515.70677	0.94776
1513.65297	0.94866
1511.59916	0.94952
1509.54536	0.95073
1507.49156	0.95218
1505.43775	0.95268
1503.38395	0.95274
1501.33015	0.95322
1499.27634	0.95369
1497.22254	0.95392
1495.16874	0.95438
1493.11493	0.95497
1491.06113	0.95511
1489.00733	0.95454
1486.95352	0.95379
1484.89972	0.95307
1482.84592	0.95175
1480.79211	0.94853
1478.73831	0.94000
1476.68451	0.91577
1474.63070	0.86837
1472.57690	0.82804
1470.52310	0.83253
1468.46929	0.84934
1466.41549	0.85017
1464.36169	0.82668
1462.30788	0.80759
1460.25408	0.82034
1458.20028	0.85856
1456.14648	0.89485
1454.09267	0.90877
1452.03887	0.91538
1449.98507	0.91997
1447.93126	0.92277
1445.87746	0.92455
1443.82366	0.92602
1441.76985	0.92737
1439.71605	0.92864
1437.66225	0.93022
1435.60844	0.93202
1433.55464	0.93325
1431.50084	0.93463
1429.44703	0.93644
1427.39323	0.93805
1425.33943	0.93909
1423.28562	0.93969
1421.23182	0.94011
1419.17802	0.94048
1417.12421	0.94063
1415.07041	0.94074
1413.01661	0.94115
1410.96280	0.94179
1408.90900	0.94223
1406.85520	0.94244
1404.80139	0.94287
1402.74759	0.94354
1400.69379	0.94407
1398.63999	0.94417
1396.58618	0.94390
1394.53238	0.94385
1392.47858	0.94430
1390.42477	0.94471
1388.37097	0.94469
1386.31717	0.94430
1384.26336	0.94388
1382.20956	0.94353
1380.15576	0.94324
1378.10195	0.94302
1376.04815	0.94249
1373.99435	0.94147
1371.94054	0.94045
1369.88674	0.93983
1367.83294	0.93973
1365.77913	0.94023
1363.72533	0.94132
1361.67153	0.94255
1359.61772	0.94328
1357.56392	0.94368
1355.51012	0.94403
1353.45631	0.94440
1351.40251	0.94470
1349.34871	0.94480
1347.29491	0.94496
1345.24110	0.94533
1343.18730	0.94589
1341.13350	0.94662
1339.07969	0.94739
1337.02589	0.94776
1334.97209	0.94763
1332.91828	0.94739
1330.86448	0.94723
1328.81068	0.94708
1326.75687	0.94696
1324.70307	0.94685
1322.64927	0.94660
1320.59546	0.94610
1318.54166	0.94533
1316.48786	0.94475
1314.43405	0.94466
1312.38025	0.94447
1310.32645	0.94405
1308.27264	0.94388
1306.21884	0.94396
1304.16504	0.94408
1302.11123	0.94390
1300.05743	0.94341
1298.00363	0.94314
1295.94982	0.94321
1293.89602	0.94341
1291.84222	0.94344
1289.78842	0.94324
1287.73461	0.94300
1285.68081	0.94269
1283.62701	0.94244
1281.57320	0.94229
1279.51940	0.94174
1277.46560	0.94091
1275.41179	0.94043
1273.35799	0.94017
1271.30419	0.93970
1269.25038	0.93910
1267.19658	0.93867
1265.14278	0.93826
1263.08897	0.93776
1261.03517	0.93727
1258.98137	0.93675
1256.92756	0.93634
1254.87376	0.93596
1252.81996	0.93520
1250.76615	0.93423
1248.71235	0.93324
1246.65855	0.93209
1244.60474	0.93088
1242.55094	0.92977
1240.49714	0.92896
1238.44334	0.92858
1236.38953	0.92811
1234.33573	0.92704
1232.28193	0.92579
1230.22812	0.92489
1228.17432	0.92419
1226.12052	0.92324
1224.06671	0.92200
1222.01291	0.92079
1219.95911	0.91957
1217.90530	0.91830
1215.85150	0.91705
1213.79770	0.91573
1211.74389	0.91415
1209.69009	0.91227
1207.63629	0.91029
1205.58248	0.90846
1203.52868	0.90672
1201.47488	0.90468
1199.42107	0.90230
1197.36727	0.89986
1195.31347	0.89722
1193.25966	0.89427
1191.20586	0.89122
1189.15206	0.88816
1187.09825	0.88519
1185.04445	0.88201
1182.99065	0.87829
1180.93685	0.87452
1178.88304	0.87091
1176.82924	0.86733
1174.77544	0.86371
1172.72163	0.86018
1170.66783	0.85673
1168.61403	0.85308
1166.56022	0.84944
1164.50642	0.84638
1162.45262	0.84396
1160.39881	0.84196
1158.34501	0.83988
1156.29121	0.83735
1154.23740	0.83455
1152.18360	0.83179
1150.12980	0.82921
1148.07599	0.82690
1146.02219	0.82451
1143.96839	0.82202
1141.91458	0.81988
1139.86078	0.81786
1137.80698	0.81542
1135.75317	0.81266
1133.69937	0.80992
1131.64557	0.80729
1129.59176	0.80460
1127.53796	0.80130
1125.48416	0.79705
1123.43036	0.79231
1121.37655	0.78780
1119.32275	0.78353
1117.26895	0.77899
1115.21514	0.77405
1113.16134	0.76898
1111.10754	0.76397
1109.05373	0.75918
1106.99993	0.75500
1104.94613	0.75154
1102.89232	0.74808
1100.83852	0.74443
1098.78472	0.74164
1096.73091	0.73982
1094.67711	0.73819
1092.62331	0.73705
1090.56950	0.73656
1088.51570	0.73600
1086.46190	0.73537
1084.40809	0.73501
1082.35429	0.73463
1080.30049	0.73415
1078.24668	0.73370
1076.19288	0.73337
1074.13908	0.73317
1072.08528	0.73279
1070.03147	0.73209
1067.97767	0.73078
1065.92387	0.72865
1063.87006	0.72623
1061.81626	0.72368
1059.76246	0.72071
1057.70865	0.71733
1055.65485	0.71358
1053.60105	0.70911
1051.54724	0.70404
1049.49344	0.69905
1047.43964	0.69435
1045.38583	0.68967
1043.33203	0.68461
1041.27823	0.67938
1039.22442	0.67475
1037.17062	0.67085
1035.11682	0.66771
1033.06301	0.66595
1031.00921	0.66580
1028.95541	0.66667
1026.90160	0.66832
1024.84780	0.67069
1022.79400	0.67300
1020.74019	0.67500
1018.68639	0.67688
1016.63259	0.67790
1014.57879	0.67784
1012.52498	0.67749
1010.47118	0.67733
1008.41738	0.67803
1006.36357	0.68027
1004.30977	0.68394
1002.25597	0.68891
1000.20216	0.69522
998.14836	0.70237
996.09456	0.70965
994.04075	0.71718
991.98695	0.72493
989.93315	0.73236
987.87934	0.73970
985.82554	0.74749
983.77174	0.75582
981.71793	0.76410
979.66413	0.77153
977.61033	0.77862
975.55652	0.78607
973.50272	0.79332
971.44892	0.79982
969.39511	0.80572
967.34131	0.81121
965.28751	0.81649
963.23371	0.82184
961.17990	0.82709
959.12610	0.83157
957.07230	0.83521
955.01849	0.83854
952.96469	0.84199
950.91089	0.84560
948.85708	0.84878
946.80328	0.85106
944.74948	0.85316
942.69567	0.85543
940.64187	0.85718
938.58807	0.85861
936.53426	0.86023
934.48046	0.86177
932.42666	0.86349
930.37285	0.86558
928.31905	0.86721
926.26525	0.86815
924.21144	0.86870
922.15764	0.86868
920.10384	0.86797
918.05003	0.86697
915.99623	0.86605
913.94243	0.86552
911.88862	0.86593
909.83482	0.86797
907.78102	0.87185
905.72722	0.87689
903.67341	0.88203
901.61961	0.88674
899.56581	0.89103
897.51200	0.89488
895.45820	0.89800
893.40440	0.89997
891.35059	0.90124
889.29679	0.90284
887.24299	0.90484
885.18918	0.90665
883.13538	0.90797
881.08158	0.90892
879.02777	0.90963
876.97397	0.91050
874.92017	0.91181
872.86636	0.91311
870.81256	0.91428
868.75876	0.91565
866.70495	0.91737
864.65115	0.91890
862.59735	0.91948
860.54354	0.91994
858.48974	0.92108
856.43594	0.92194
854.38213	0.92192
852.32833	0.92192
850.27453	0.92275
848.22073	0.92393
846.16692	0.92416
844.11312	0.92349
842.05932	0.92320
840.00551	0.92276
837.95171	0.92161
835.89791	0.92111
833.84410	0.92140
831.79030	0.92104
829.73650	0.92015
827.68269	0.91936
825.62889	0.91865
823.57509	0.91824
821.52128	0.91744
819.46748	0.91629
817.41368	0.91560
815.35987	0.91490
813.30607	0.91360
811.25227	0.91136
809.19846	0.90835
807.14466	0.90478
805.09086	0.90020
803.03705	0.89513
800.98325	0.89140
798.92945	0.88949
796.87565	0.88832
794.82184	0.88754
792.76804	0.88687
790.71424	0.88570
788.66043	0.88496
786.60663	0.88538
784.55283	0.88570
782.49902	0.88543
780.44522	0.88493
778.39142	0.88421
776.33761	0.88362
774.28381	0.88360
772.23001	0.88395
770.17620	0.88424
768.12240	0.88417
766.06860	0.88363
764.01479	0.88263
761.96099	0.88104
759.90719	0.87947
757.85338	0.87897
755.79958	0.87894
753.74578	0.87850
751.69197	0.87805
749.63817	0.87783
747.58437	0.87783
745.53056	0.87769
743.47676	0.87729
741.42296	0.87710
739.36916	0.87598
737.31535	0.87075
735.26155	0.85417
733.20775	0.81713
731.15394	0.77575
729.10014	0.76761
727.04634	0.78985
724.99253	0.80271
722.93873	0.78216
720.88493	0.73254
718.83112	0.69517
716.77732	0.70784
714.72352	0.75264
712.66971	0.79412
710.61591	0.81980
708.56211	0.83376
706.50830	0.84093
704.45450	0.84366
702.40070	0.84422
700.34689	0.84391
698.29309	0.84378
696.23929	0.84475
694.18548	0.84592
692.13168	0.84660
690.07788	0.84786
688.02408	0.85002
685.97027	0.85153
683.91647	0.85191
681.86267	0.85226
679.80886	0.85334
677.75506	0.85435
675.70126	0.85409
673.64745	0.85386
671.59365	0.85476
669.53985	0.85593
667.48604	0.85631
665.43224	0.85531
663.37844	0.85356
661.32463	0.85189
659.27083	0.85087
657.21703	0.84998
655.16322	0.84850
653.10942	0.84657
651.05562	0.84506
649.00181	0.84431
646.94801	0.84472
644.89421	0.84614
642.84040	0.84718
640.78660	0.84791
638.73280	0.84843
636.67899	0.84817
634.62519	0.84772
632.57139	0.84771
630.51759	0.84840
628.46378	0.84874
626.40998	0.84767
624.35618	0.84659
622.30237	0.84662
620.24857	0.84600
618.19477	0.84362
616.14096	0.84074
614.08716	0.83804
612.03336	0.83502
609.97955	0.83113
607.92575	0.82642
605.87195	0.82153
603.81814	0.81763
601.76434	0.81583
599.71054	0.81490
597.65673	0.81320
595.60293	0.81134
593.54913	0.81093
591.49532	0.81250
589.44152	0.81416
587.38772	0.81499
585.33391	0.81586
583.28011	0.81605
581.22631	0.81557
579.17250	0.81591
577.11870	0.81628
575.06490	0.81575
573.01110	0.81503
570.95729	0.81403
568.90349	0.81249
566.84969	0.81110
564.79588	0.81000
562.74208	0.80891
560.68828	0.80848
558.63447	0.80893
556.58067	0.80904
554.52687	0.80801
552.47306	0.80596
550.41926	0.80284
548.36546	0.79859
546.31165	0.79291
544.25785	0.78700
542.20405	0.78298
540.15024	0.78021
538.09644	0.77692
536.04264	0.77435
533.98883	0.77481
531.93503	0.77626
529.88123	0.77623
527.82742	0.77642
525.77362	0.77830
523.71982	0.78174
521.66602	0.78605
519.61221	0.78875
517.55841	0.78915
515.50461	0.79062
513.45080	0.79440
511.39700	0.79875
509.34320	0.80153
507.28939	0.80188
505.23559	0.80192
503.18179	0.80377
501.12798	0.80550
499.07418	0.80400
497.02038	0.80132
494.96657	0.80070
492.91277	0.80048
490.85897	0.79726
488.80516	0.79199
486.75136	0.78722
484.69756	0.78123
482.64375	0.77350
480.58995	0.76623
478.53615	0.75685
476.48234	0.74526
474.42854	0.73366
472.37474	0.72127
470.32093	0.71253
468.26713	0.70978
466.21333	0.71063
464.15953	0.71312
462.10572	0.71462
460.05192	0.71682
457.99812	0.72324
455.94431	0.73063
453.89051	0.73520
451.83671	0.73836
449.78290	0.74156
447.72910	0.74585
445.67530	0.75123
443.62149	0.75480
441.56769	0.75491
439.51389	0.75538
437.46008	0.75630
435.40628	0.75399
433.35248	0.75007
431.29867	0.74688
429.24487	0.74465
427.19107	0.74524
425.13726	0.74935
423.08346	0.75665
421.02966	0.76637
418.97585	0.77541
416.92205	0.77832
414.86825	0.77778
412.81445	0.77959
410.76064	0.78714
408.70684	0.79852
406.65304	0.80536
404.59923	0.80303
402.54543	0.79930
400.49163	0.79934
398.43782	0.79676
