3996.70104	0.99136
3994.64724	0.99153
3992.59344	0.99205
3990.53964	0.99225
3988.48583	0.99193
3986.43203	0.99152
3984.37823	0.99184
3982.32442	0.99242
3980.27062	0.99221
3978.21682	0.99166
3976.16301	0.99164
3974.10921	0.99187
3972.05541	0.99171
3970.00160	0.99153
3967.94780	0.99172
3965.89400	0.99177
3963.84019	0.99199
3961.78639	0.99247
3959.73259	0.99247
3957.67878	0.99247
3955.62498	0.99282
3953.57118	0.99296
3951.51737	0.99298
3949.46357	0.99305
3947.40977	0.99273
3945.35596	0.99224
3943.30216	0.99245
3941.24836	0.99274
3939.19455	0.99261
3937.14075	0.99290
3935.08695	0.99323
3933.03315	0.99297
3930.97934	0.99276
3928.92554	0.99291
3926.87174	0.99286
3924.81793	0.99227
3922.76413	0.99135
3920.71033	0.99110
3918.65652	0.99192
3916.60272	0.99254
3914.54892	0.99202
3912.49511	0.99151
3910.44131	0.99146
3908.38751	0.99144
3906.33370	0.99168
3904.27990	0.99220
3902.22610	0.99251
3900.17229	0.99265
3898.11849	0.99256
3896.06469	0.99211
3894.01088	0.99148
3891.95708	0.99130
3889.90328	0.99204
3887.84947	0.99274
3885.79567	0.99280
3883.74187	0.99275
3881.68807	0.99299
3879.63426	0.99284
3877.58046	0.99230
3875.52666	0.99211
3873.47285	0.99224
3871.41905	0.99191
3869.36525	0.99153
3867.31144	0.99188
3865.25764	0.99215
3863.20384	0.99194
3861.15003	0.99152
3859.09623	0.99145
3857.04243	0.99195
3854.98862	0.99272
3852.93482	0.99315
3850.88102	0.99313
3848.82721	0.99310
3846.77341	0.99274
3844.71961	0.99210
3842.66580	0.99130
3840.61200	0.99089
3838.55820	0.99192
3836.50439	0.99341
3834.45059	0.99396
3832.39679	0.99383
3830.34298	0.99317
3828.28918	0.99244
3826.23538	0.99216
3824.18158	0.99205
3822.12777	0.99154
3820.07397	0.99132
3818.02017	0.99224
3815.96636	0.99345
3813.91256	0.99358
3811.85876	0.99257
3809.80495	0.99161
3807.75115	0.99133
3805.69735	0.99152
3803.64354	0.99196
3801.58974	0.99252
3799.53594	0.99237
3797.48213	0.99171
3795.42833	0.99133
3793.37453	0.99136
3791.32072	0.99147
3789.26692	0.99163
3787.21312	0.99205
3785.15931	0.99250
3783.10551	0.99224
3781.05171	0.99163
3778.99790	0.99171
3776.94410	0.99226
3774.89030	0.99237
3772.83650	0.99218
3770.78269	0.99162
3768.72889	0.99043
3766.67509	0.98984
3764.62128	0.99026
3762.56748	0.99088
3760.51368	0.99134
3758.45987	0.99163
3756.40607	0.99162
3754.35227	0.99173
3752.29846	0.99240
3750.24466	0.99305
3748.19086	0.99251
3746.13705	0.99160
3744.08325	0.99150
3742.02945	0.99160
3739.97564	0.99136
3737.92184	0.99073
3735.86804	0.98938
3733.81423	0.98895
3731.76043	0.99011
3729.70663	0.99122
3727.65282	0.99132
3725.59902	0.99041
3723.54522	0.98961
3721.49141	0.98928
3719.43761	0.98825
3717.38381	0.98672
3715.33001	0.98549
3713.27620	0.98381
3711.22240	0.98017
3709.16860	0.97580
3707.11479	0.97258
3705.06099	0.96947
3703.00719	0.96561
3700.95338	0.96145
3698.89958	0.95880
3696.84578	0.95839
3694.79197	0.95900
3692.73817	0.96011
3690.68437	0.96223
3688.63056	0.96453
3686.57676	0.96668
3684.52296	0.96864
3682.46915	0.96970
3680.41535	0.97012
3678.36155	0.97105
3676.30774	0.97272
3674.25394	0.97254
3672.20014	0.97025
3670.14633	0.96826
3668.09253	0.96781
3666.03873	0.96798
3663.98492	0.96786
3661.93112	0.96749
3659.87732	0.96638
3657.82352	0.96443
3655.76971	0.96272
3653.71591	0.96211
3651.66211	0.96196
3649.60830	0.96115
3647.55450	0.96008
3645.50070	0.95987
3643.44689	0.95994
3641.39309	0.95980
3639.33929	0.95893
3637.28548	0.95772
3635.23168	0.95684
3633.17788	0.95630
3631.12407	0.95627
3629.07027	0.95569
3627.01647	0.95279
3624.96266	0.95000
3622.90886	0.94863
3620.85506	0.94843
3618.80125	0.94923
3616.74745	0.95021
3614.69365	0.95058
3612.63984	0.95077
3610.58604	0.95098
3608.53224	0.95068
3606.47844	0.95042
3604.42463	0.95091
3602.37083	0.95139
3600.31703	0.95139
3598.26322	0.95123
3596.20942	0.95111
3594.15562	0.95088
3592.10181	0.95048
3590.04801	0.95013
3587.99421	0.94991
3585.94040	0.95011
3583.88660	0.95047
3581.83280	0.94989
3579.77899	0.94845
3577.72519	0.94728
3575.67139	0.94657
3573.61758	0.94629
3571.56378	0.94644
3569.50998	0.94637
3567.45617	0.94496
3565.40237	0.94271
3563.34857	0.94168
3561.29476	0.94126
3559.24096	0.94040
3557.18716	0.93926
3555.13335	0.93805
3553.07955	0.93702
3551.02575	0.93664
3548.97195	0.93650
3546.91814	0.93614
3544.86434	0.93540
3542.81054	0.93424
3540.75673	0.93295
3538.70293	0.93212
3536.64913	0.93184
3534.59532	0.93173
3532.54152	0.93169
3530.48772	0.93153
3528.43391	0.93155
3526.38011	0.93183
3524.32631	0.93189
3522.27250	0.93181
3520.21870	0.93203
3518.16490	0.93230
3516.11109	0.93226
3514.05729	0.93177
3512.00349	0.93105
3509.94968	0.93073
3507.89588	0.93070
3505.84208	0.93060
3503.78827	0.93076
3501.73447	0.93100
3499.68067	0.93088
3497.62687	0.93057
3495.57306	0.93031
3493.51926	0.93027
3491.46546	0.93014
3489.41165	0.92954
3487.35785	0.92902
3485.30405	0.92872
3483.25024	0.92841
3481.19644	0.92848
3479.14264	0.92873
3477.08883	0.92841
3475.03503	0.92793
3472.98123	0.92779
3470.92742	0.92794
3468.87362	0.92790
3466.81982	0.92740
3464.76601	0.92699
3462.71221	0.92645
3460.65841	0.92571
3458.60460	0.92561
3456.55080	0.92585
3454.49700	0.92548
3452.44319	0.92464
3450.38939	0.92393
3448.33559	0.92332
3446.28178	0.92288
3444.22798	0.92269
3442.17418	0.92240
3440.12038	0.92207
3438.06657	0.92166
3436.01277	0.92096
3433.95897	0.92005
3431.90516	0.91889
3429.85136	0.91797
3427.79756	0.91782
3425.74375	0.91790
3423.68995	0.91746
3421.63615	0.91663
3419.58234	0.91581
3417.52854	0.91496
3415.47474	0.91420
3413.42093	0.91363
3411.36713	0.91278
3409.31333	0.91145
3407.25952	0.91040
3405.20572	0.91035
3403.15192	0.91039
3401.09811	0.91001
3399.04431	0.91001
3396.99051	0.90984
3394.93670	0.90938
3392.88290	0.90964
3390.82910	0.90997
3388.77529	0.90991
3386.72149	0.91038
3384.66769	0.91140
3382.61389	0.91185
3380.56008	0.91157
3378.50628	0.91161
3376.45248	0.91208
3374.39867	0.91241
3372.34487	0.91272
3370.29107	0.91295
3368.23726	0.91288
3366.18346	0.91294
3364.12966	0.91322
3362.07585	0.91371
3360.02205	0.91449
3357.96825	0.91520
3355.91444	0.91544
3353.86064	0.91545
3351.80684	0.91572
3349.75303	0.91616
3347.69923	0.91633
3345.64543	0.91625
3343.59162	0.91648
3341.53782	0.91694
3339.48402	0.91738
3337.43021	0.91766
3335.37641	0.91776
3333.32261	0.91812
3331.26881	0.91855
3329.21500	0.91842
3327.16120	0.91833
3325.10740	0.91908
3323.05359	0.92006
3320.99979	0.92049
3318.94599	0.92042
3316.89218	0.92046
3314.83838	0.92090
3312.78458	0.92127
3310.73077	0.92166
3308.67697	0.92231
3306.62317	0.92268
3304.56936	0.92255
3302.51556	0.92250
3300.46176	0.92293
3298.40795	0.92346
3296.35415	0.92384
3294.30035	0.92389
3292.24654	0.92370
3290.19274	0.92386
3288.13894	0.92411
3286.08513	0.92406
3284.03133	0.92448
3281.97753	0.92560
3279.92372	0.92646
3277.86992	0.92658
3275.81612	0.92675
3273.76232	0.92705
3271.70851	0.92682
3269.65471	0.92652
3267.60091	0.92693
3265.54710	0.92785
3263.49330	0.92856
3261.43950	0.92875
3259.38569	0.92877
3257.33189	0.92939
3255.27809	0.93054
3253.22428	0.93078
3251.17048	0.92984
3249.11668	0.92945
3247.06287	0.93033
3245.00907	0.93141
3242.95527	0.93168
3240.90146	0.93130
3238.84766	0.93115
3236.79386	0.93146
3234.74005	0.93191
3232.68625	0.93266
3230.63245	0.93376
3228.57864	0.93487
3226.52484	0.93532
3224.47104	0.93494
3222.41724	0.93477
3220.36343	0.93529
3218.30963	0.93610
3216.25583	0.93694
3214.20202	0.93760
3212.14822	0.93804
3210.09442	0.93837
3208.04061	0.93896
3205.98681	0.93981
3203.93301	0.94027
3201.87920	0.94055
3199.82540	0.94131
3197.77160	0.94219
3195.71779	0.94277
3193.66399	0.94307
3191.61019	0.94306
3189.55638	0.94305
3187.50258	0.94326
3185.44878	0.94366
3183.39497	0.94409
3181.34117	0.94474
3179.28737	0.94546
3177.23356	0.94570
3175.17976	0.94592
3173.12596	0.94682
3171.07215	0.94793
3169.01835	0.94859
3166.96455	0.94930
3164.91075	0.95053
3162.85694	0.95147
3160.80314	0.95167
3158.74934	0.95168
3156.69553	0.95164
3154.64173	0.95176
3152.58793	0.95243
3150.53412	0.95299
3148.48032	0.95316
3146.42652	0.95351
3144.37271	0.95411
3142.31891	0.95465
3140.26511	0.95507
3138.21130	0.95572
3136.15750	0.95629
3134.10370	0.95626
3132.04989	0.95625
3129.99609	0.95702
3127.94229	0.95789
3125.88848	0.95839
3123.83468	0.95886
3121.78088	0.95934
3119.72707	0.95962
3117.67327	0.95960
3115.61947	0.95943
3113.56566	0.95942
3111.51186	0.95972
3109.45806	0.96019
3107.40426	0.96064
3105.35045	0.96117
3103.29665	0.96198
3101.24285	0.96271
3099.18904	0.96294
3097.13524	0.96286
3095.08144	0.96296
3093.02763	0.96325
3090.97383	0.96329
3088.92003	0.96305
3086.86622	0.96332
3084.81242	0.96403
3082.75862	0.96424
3080.70481	0.96419
3078.65101	0.96431
3076.59721	0.96441
3074.54340	0.96480
3072.48960	0.96535
3070.43580	0.96571
3068.38199	0.96598
3066.32819	0.96610
3064.27439	0.96591
3062.22058	0.96591
3060.16678	0.96651
3058.11298	0.96738
3056.05918	0.96824
3054.00537	0.96883
3051.95157	0.96904
3049.89777	0.96906
3047.84396	0.96885
3045.79016	0.96891
3043.73636	0.96935
3041.68255	0.96939
3039.62875	0.96908
3037.57495	0.96898
3035.52114	0.96915
3033.46734	0.96952
3031.41354	0.97017
3029.35973	0.97081
3027.30593	0.97112
3025.25213	0.97089
3023.19832	0.97036
3021.14452	0.97031
3019.09072	0.97097
3017.03691	0.97171
3014.98311	0.97192
3012.92931	0.97183
3010.87550	0.97180
3008.82170	0.97186
3006.76790	0.97194
3004.71409	0.97210
3002.66029	0.97231
3000.60649	0.97231
2998.55269	0.97216
2996.49888	0.97205
2994.44508	0.97204
2992.39128	0.97200
2990.33747	0.97154
2988.28367	0.97075
2986.22987	0.96999
2984.17606	0.96930
2982.12226	0.96857
2980.06846	0.96782
2978.01465	0.96719
2975.96085	0.96647
2973.90705	0.96557
2971.85324	0.96466
2969.79944	0.96340
2967.74564	0.96166
2965.69183	0.95971
2963.63803	0.95758
2961.58423	0.95536
2959.53042	0.95351
2957.47662	0.95222
2955.42282	0.95139
2953.36901	0.95077
2951.31521	0.95002
2949.26141	0.94908
2947.20761	0.94744
2945.15380	0.94431
2943.10000	0.93958
2941.04620	0.93352
2938.99239	0.92621
2936.93859	0.91765
2934.88479	0.90774
2932.83098	0.89592
2930.77718	0.88160
2928.72338	0.86435
2926.66957	0.84354
2924.61577	0.81867
2922.56197	0.78946
2920.50816	0.75716
2918.45436	0.72620
2916.40056	0.70377
2914.34675	0.69761
2912.29295	0.70964
2910.23915	0.73302
2908.18534	0.75854
2906.13154	0.78083
2904.07774	0.79893
2902.02393	0.81335
2899.97013	0.82471
2897.91633	0.83415
2895.86252	0.84283
2893.80872	0.85128
2891.75492	0.85968
2889.70112	0.86817
2887.64731	0.87650
2885.59351	0.88455
2883.53971	0.89277
2881.48590	0.90098
2879.43210	0.90848
2877.37830	0.91527
2875.32449	0.92137
2873.27069	0.92646
2871.21689	0.93039
2869.16308	0.93286
2867.10928	0.93318
2865.05548	0.93068
2863.00167	0.92507
2860.94787	0.91610
2858.89407	0.90241
2856.84026	0.88128
2854.78646	0.84986
2852.73266	0.80812
2850.67885	0.76382
2848.62505	0.73404
2846.57125	0.73311
2844.51744	0.75815
2842.46364	0.79463
2840.40984	0.83035
2838.35603	0.85975
2836.30223	0.88217
2834.24843	0.89916
2832.19463	0.91225
2830.14082	0.92244
2828.08702	0.93037
2826.03322	0.93662
2823.97941	0.94194
2821.92561	0.94642
2819.87181	0.94981
2817.81800	0.95275
2815.76420	0.95557
2813.71040	0.95792
2811.65659	0.95986
2809.60279	0.96156
2807.54899	0.96306
2805.49518	0.96466
2803.44138	0.96615
2801.38758	0.96716
2799.33377	0.96793
2797.27997	0.96873
2795.22617	0.96953
2793.17236	0.97043
2791.11856	0.97141
2789.06476	0.97231
2787.01095	0.97327
2784.95715	0.97413
2782.90335	0.97462
2780.84955	0.97485
2778.79574	0.97523
2776.74194	0.97589
2774.68814	0.97670
2772.63433	0.97745
2770.58053	0.97796
2768.52673	0.97825
2766.47292	0.97854
2764.41912	0.97891
2762.36532	0.97915
2760.31151	0.97912
2758.25771	0.97895
2756.20391	0.97893
2754.15010	0.97921
2752.09630	0.97975
2750.04250	0.98037
2747.98869	0.98065
2745.93489	0.98057
2743.88109	0.98056
2741.82728	0.98070
2739.77348	0.98068
2737.71968	0.98067
2735.66587	0.98083
2733.61207	0.98095
2731.55827	0.98100
2729.50446	0.98116
2727.45066	0.98132
2725.39686	0.98145
2723.34306	0.98148
2721.28925	0.98142
2719.23545	0.98157
2717.18165	0.98182
2715.12784	0.98190
2713.07404	0.98203
2711.02024	0.98246
2708.96643	0.98271
2706.91263	0.98260
2704.85883	0.98253
2702.80502	0.98274
2700.75122	0.98332
2698.69742	0.98390
2696.64361	0.98406
2694.58981	0.98396
2692.53601	0.98391
2690.48220	0.98387
2688.42840	0.98379
2686.37460	0.98371
2684.32079	0.98352
2682.26699	0.98353
2680.21319	0.98397
2678.15938	0.98409
2676.10558	0.98368
2674.05178	0.98348
2671.99797	0.98347
2669.94417	0.98327
2667.89037	0.98318
2665.83657	0.98351
2663.78276	0.98372
2661.72896	0.98352
2659.67516	0.98344
2657.62135	0.98345
2655.56755	0.98334
2653.51375	0.98351
2651.45994	0.98388
2649.40614	0.98403
2647.35234	0.98411
2645.29853	0.98437
2643.24473	0.98462
2641.19093	0.98448
2639.13712	0.98410
2637.08332	0.98385
2635.02952	0.98387
2632.97571	0.98409
2630.92191	0.98431
2628.86811	0.98449
2626.81430	0.98468
2624.76050	0.98496
2622.70670	0.98521
2620.65289	0.98546
2618.59909	0.98558
2616.54529	0.98545
2614.49149	0.98546
2612.43768	0.98582
2610.38388	0.98631
2608.33008	0.98637
2606.27627	0.98582
2604.22247	0.98548
2602.16867	0.98574
2600.11486	0.98607
2598.06106	0.98634
2596.00726	0.98685
2593.95345	0.98747
2591.89965	0.98787
2589.84585	0.98790
2587.79204	0.98787
2585.73824	0.98799
2583.68444	0.98809
2581.63063	0.98823
2579.57683	0.98854
2577.52303	0.98895
2575.46922	0.98951
2573.41542	0.98948
2571.36162	0.98847
2569.30781	0.98775
2567.25401	0.98799
2565.20021	0.98832
2563.14640	0.98825
2561.09260	0.98793
2559.03880	0.98759
2556.98500	0.98792
2554.93119	0.98895
2552.87739	0.98948
2550.82359	0.98883
2548.76978	0.98746
2546.71598	0.98660
2544.66218	0.98708
2542.60837	0.98818
2540.55457	0.98887
2538.50077	0.98906
2536.44696	0.98884
2534.39316	0.98849
2532.33936	0.98839
2530.28555	0.98889
2528.23175	0.98987
2526.17795	0.99031
2524.12414	0.99006
2522.07034	0.98973
2520.01654	0.98919
2517.96273	0.98849
2515.90893	0.98859
2513.85513	0.98943
2511.80132	0.99014
2509.74752	0.99045
2507.69372	0.99022
2505.63992	0.99010
2503.58611	0.99020
2501.53231	0.98966
2499.47851	0.98889
2497.42470	0.98876
2495.37090	0.98944
2493.31710	0.99032
2491.26329	0.99087
2489.20949	0.99123
2487.15569	0.99111
2485.10188	0.99052
2483.04808	0.99016
2480.99428	0.98958
2478.94047	0.98868
2476.88667	0.98850
2474.83287	0.98914
2472.77906	0.98976
2470.72526	0.98963
2468.67146	0.98910
2466.61765	0.98912
2464.56385	0.98976
2462.51005	0.99044
2460.45624	0.99067
2458.40244	0.99052
2456.34864	0.99035
2454.29483	0.99000
2452.24103	0.98934
2450.18723	0.98886
2448.13343	0.98902
2446.07962	0.98986
2444.02582	0.99078
2441.97202	0.99142
2439.91821	0.99169
2437.86441	0.99129
2435.81061	0.99075
2433.75680	0.99079
2431.70300	0.99096
2429.64920	0.99064
2427.59539	0.99028
2425.54159	0.99060
2423.48779	0.99142
2421.43398	0.99178
2419.38018	0.99126
2417.32638	0.99064
2415.27257	0.99049
2413.21877	0.99064
2411.16497	0.99093
2409.11116	0.99101
2407.05736	0.99058
2405.00356	0.99029
2402.94975	0.99047
2400.89595	0.99063
2398.84215	0.99073
2396.78834	0.99100
2394.73454	0.99116
2392.68074	0.99096
2390.62694	0.99055
2388.57313	0.99032
2386.51933	0.99043
2384.46553	0.99054
2382.41172	0.99043
2380.35792	0.99003
2378.30412	0.98944
2376.25031	0.98949
2374.19651	0.98970
2372.14271	0.98833
2370.08890	0.98676
2368.03510	0.98752
2365.98130	0.99002
2363.92749	0.99161
2361.87369	0.99068
2359.81989	0.98908
2357.76608	0.98797
2355.71228	0.98733
2353.65848	0.98805
2351.60467	0.98907
2349.55087	0.98915
2347.49707	0.98881
2345.44326	0.98840
2343.38946	0.98793
2341.33566	0.98780
2339.28186	0.98785
2337.22805	0.98742
2335.17425	0.98692
2333.12045	0.98739
2331.06664	0.98814
2329.01284	0.98795
2326.95904	0.98675
2324.90523	0.98545
2322.85143	0.98537
2320.79763	0.98663
2318.74382	0.98788
2316.69002	0.98832
2314.63622	0.98851
2312.58241	0.98891
2310.52861	0.98947
2308.47481	0.98979
2306.42100	0.98924
2304.36720	0.98826
2302.31340	0.98805
2300.25959	0.98871
2298.20579	0.98910
2296.15199	0.98906
2294.09818	0.98902
2292.04438	0.98866
2289.99058	0.98838
2287.93677	0.98868
2285.88297	0.98877
2283.82917	0.98879
2281.77537	0.98943
2279.72156	0.98942
2277.66776	0.98895
2275.61396	0.98947
2273.56015	0.98992
2271.50635	0.98937
2269.45255	0.98875
2267.39874	0.98893
2265.34494	0.99010
2263.29114	0.99145
2261.23733	0.99165
2259.18353	0.99020
2257.12973	0.98838
2255.07592	0.98787
2253.02212	0.98834
2250.96832	0.98855
2248.91451	0.98884
2246.86071	0.98955
2244.80691	0.98955
2242.75310	0.98930
2240.69930	0.98931
2238.64550	0.98883
2236.59169	0.98835
2234.53789	0.98850
2232.48409	0.98926
2230.43029	0.99013
2228.37648	0.99054
2226.32268	0.99075
2224.26888	0.99136
2222.21507	0.99219
2220.16127	0.99319
2218.10747	0.99385
2216.05366	0.99296
2213.99986	0.99125
2211.94606	0.99095
2209.89225	0.99175
2207.83845	0.99200
2205.78465	0.99293
2203.73084	0.99428
2201.67704	0.99419
2199.62324	0.99359
2197.56943	0.99259
2195.51563	0.99071
2193.46183	0.99002
2191.40802	0.99184
2189.35422	0.99305
2187.30042	0.99159
2185.24661	0.99066
2183.19281	0.99135
2181.13901	0.99105
2179.08520	0.98972
2177.03140	0.98981
2174.97760	0.99199
2172.92380	0.99367
2170.86999	0.99306
2168.81619	0.99144
2166.76239	0.99020
2164.70858	0.98955
2162.65478	0.98859
2160.60098	0.98749
2158.54717	0.98914
2156.49337	0.99386
2154.43957	0.99659
2152.38576	0.99486
2150.33196	0.99132
2148.27816	0.99013
2146.22435	0.99304
2144.17055	0.99646
2142.11675	0.99603
2140.06294	0.99274
2138.00914	0.99103
2135.95534	0.99214
2133.90153	0.99354
2131.84773	0.99416
2129.79393	0.99436
2127.74012	0.99412
2125.68632	0.99391
2123.63252	0.99420
2121.57871	0.99433
2119.52491	0.99356
2117.47111	0.99262
2115.41731	0.99261
2113.36350	0.99284
2111.30970	0.99210
2109.25590	0.99076
2107.20209	0.98993
2105.14829	0.98991
2103.09449	0.99051
2101.04068	0.99138
2098.98688	0.99180
2096.93308	0.99126
2094.87927	0.99044
2092.82547	0.99092
2090.77167	0.99220
2088.71786	0.99207
2086.66406	0.99051
2084.61026	0.98948
2082.55645	0.98976
2080.50265	0.99040
2078.44885	0.99100
2076.39504	0.99231
2074.34124	0.99372
2072.28744	0.99338
2070.23363	0.99175
2068.17983	0.99042
2066.12603	0.99008
2064.07223	0.99098
2062.01842	0.99155
2059.96462	0.99068
2057.91082	0.98958
2055.85701	0.98960
2053.80321	0.99053
2051.74941	0.99108
2049.69560	0.99160
2047.64180	0.99298
2045.58800	0.99388
2043.53419	0.99354
2041.48039	0.99264
2039.42659	0.99207
2037.37278	0.99180
2035.31898	0.99119
2033.26518	0.99221
2031.21137	0.99379
2029.15757	0.99302
2027.10377	0.99307
2025.04996	0.99513
2022.99616	0.99465
2020.94236	0.99267
2018.88855	0.99327
2016.83475	0.99424
2014.78095	0.99287
2012.72714	0.99177
2010.67334	0.99352
2008.61954	0.99488
2006.56574	0.99330
2004.51193	0.99261
2002.45813	0.99432
2000.40433	0.99522
1998.35052	0.99396
1996.29672	0.99182
1994.24292	0.98990
1992.18911	0.98951
1990.13531	0.99085
1988.08151	0.99136
1986.02770	0.98962
1983.97390	0.98800
1981.92010	0.98877
1979.86629	0.99210
1977.81249	0.99531
1975.75869	0.99542
1973.70488	0.99398
1971.65108	0.99297
1969.59728	0.99364
1967.54347	0.99550
1965.48967	0.99553
1963.43587	0.99345
1961.38206	0.99168
1959.32826	0.99122
1957.27446	0.99140
1955.22066	0.99173
1953.16685	0.99189
1951.11305	0.99113
1949.05925	0.98966
1947.00544	0.98872
1944.95164	0.98814
1942.89784	0.98779
1940.84403	0.98885
1938.79023	0.99125
1936.73643	0.99308
1934.68262	0.99291
1932.62882	0.99182
1930.57502	0.99149
1928.52121	0.99144
1926.46741	0.99080
1924.41361	0.99034
1922.35980	0.99060
1920.30600	0.99067
1918.25220	0.99007
1916.19839	0.99006
1914.14459	0.99080
1912.09079	0.99122
1910.03698	0.99121
1907.98318	0.99092
1905.92938	0.99074
1903.87557	0.99076
1901.82177	0.99083
1899.76797	0.99087
1897.71417	0.99082
1895.66036	0.99044
1893.60656	0.98980
1891.55276	0.98956
1889.49895	0.98985
1887.44515	0.99038
1885.39135	0.99064
1883.33754	0.99040
1881.28374	0.99024
1879.22994	0.99029
1877.17613	0.99035
1875.12233	0.99046
1873.06853	0.99049
1871.01472	0.99022
1868.96092	0.99017
1866.90712	0.99068
1864.85331	0.99062
1862.79951	0.99015
1860.74571	0.99035
1858.69190	0.99096
1856.63810	0.99102
1854.58430	0.99055
1852.53049	0.99036
1850.47669	0.99052
1848.42289	0.99091
1846.36908	0.99116
1844.31528	0.99068
1842.26148	0.99039
1840.20768	0.99083
1838.15387	0.99111
1836.10007	0.99070
1834.04627	0.99041
1831.99246	0.99042
1829.93866	0.98959
1827.88486	0.98860
1825.83105	0.98899
1823.77725	0.98992
1821.72345	0.99011
1819.66964	0.98992
1817.61584	0.98960
1815.56204	0.98907
1813.50823	0.98887
1811.45443	0.98920
1809.40063	0.98946
1807.34682	0.98949
1805.29302	0.98932
1803.23922	0.98870
1801.18541	0.98817
1799.13161	0.98823
1797.07781	0.98806
1795.02400	0.98734
1792.97020	0.98682
1790.91640	0.98735
1788.86260	0.98814
1786.80879	0.98823
1784.75499	0.98774
1782.70119	0.98719
1780.64738	0.98688
1778.59358	0.98695
1776.53978	0.98708
1774.48597	0.98679
1772.43217	0.98628
1770.37837	0.98611
1768.32456	0.98632
1766.27076	0.98651
1764.21696	0.98645
1762.16315	0.98612
1760.10935	0.98547
1758.05555	0.98490
1756.00174	0.98442
1753.94794	0.98363
1751.89414	0.98225
1749.84033	0.98028
1747.78653	0.97842
1745.73273	0.97714
1743.67892	0.97605
1741.62512	0.97439
1739.57132	0.97215
1737.51751	0.97039
1735.46371	0.96963
1733.40991	0.96981
1731.35611	0.97022
1729.30230	0.97037
1727.24850	0.97050
1725.19470	0.97047
1723.14089	0.97056
1721.08709	0.97104
1719.03329	0.97137
1716.97948	0.97110
1714.92568	0.97030
1712.87188	0.96951
1710.81807	0.96929
1708.76427	0.96941
1706.71047	0.96896
1704.65666	0.96800
1702.60286	0.96700
1700.54906	0.96545
1698.49525	0.96404
1696.44145	0.96284
1694.38765	0.96067
1692.33384	0.95843
1690.28004	0.95623
1688.22624	0.95397
1686.17243	0.95195
1684.11863	0.94926
1682.06483	0.94657
1680.01103	0.94505
1677.95722	0.94401
1675.90342	0.94318
1673.84962	0.94246
1671.79581	0.94146
1669.74201	0.93998
1667.68821	0.93888
1665.63440	0.93815
1663.58060	0.93686
1661.52680	0.93524
1659.47299	0.93402
1657.41919	0.93308
1655.36539	0.93226
1653.31158	0.93147
1651.25778	0.93095
1649.20398	0.93061
1647.15017	0.92992
1645.09637	0.92899
1643.04257	0.92854
1640.98876	0.92868
1638.93496	0.92910
1636.88116	0.92859
1634.82735	0.92704
1632.77355	0.92685
1630.71975	0.92710
1628.66594	0.92647
1626.61214	0.92527
1624.55834	0.92392
1622.50454	0.92263
1620.45073	0.92273
1618.39693	0.92407
1616.34313	0.92627
1614.28932	0.92907
1612.23552	0.93195
1610.18172	0.93470
1608.12791	0.93690
1606.07411	0.93856
1604.02031	0.94005
1601.96650	0.94130
1599.91270	0.94220
1597.85890	0.94321
1595.80509	0.94437
1593.75129	0.94511
1591.69749	0.94529
1589.64368	0.94505
1587.58988	0.94451
1585.53608	0.94366
1583.48227	0.94227
1581.42847	0.94051
1579.37467	0.93890
1577.32086	0.93778
1575.26706	0.93799
1573.21326	0.93933
1571.15945	0.94086
1569.10565	0.94295
1567.05185	0.94499
1564.99805	0.94652
1562.94424	0.94776
1560.89044	0.94867
1558.83664	0.94920
1556.78283	0.94912
1554.72903	0.94877
1552.67523	0.94811
1550.62142	0.94692
1548.56762	0.94550
1546.51382	0.94434
1544.46001	0.94312
1542.40621	0.94191
1540.35241	0.94143
1538.29860	0.94256
1536.24480	0.94442
1534.19100	0.94719
1532.13719	0.95079
1530.08339	0.95339
1528.02959	0.95522
1525.97578	0.95675
1523.92198	0.95815
1521.86818	0.95961
1519.81437	0.96041
1517.76057	0.96037
1515.70677	0.96012
1513.65297	0.96045
1511.59916	0.96139
1509.54536	0.96220
1507.49156	0.96253
1505.43775	0.96323
1503.38395	0.96373
1501.33015	0.96387
1499.27634	0.96375
1497.22254	0.96320
1495.16874	0.96244
1493.11493	0.96168
1491.06113	0.96037
1489.00733	0.95831
1486.95352	0.95650
1484.89972	0.95472
1482.84592	0.95169
1480.79211	0.94660
1478.73831	0.93834
1476.68451	0.92075
1474.63070	0.88687
1472.57690	0.85003
1470.52310	0.84185
1468.46929	0.85088
1466.41549	0.85645
1464.36169	0.85367
1462.30788	0.85451
1460.25408	0.86727
1458.20028	0.88828
1456.14648	0.90671
1454.09267	0.91442
1452.03887	0.91910
1449.98507	0.92351
1447.93126	0.92726
1445.87746	0.92987
1443.82366	0.93169
1441.76985	0.93341
1439.71605	0.93486
1437.66225	0.93593
1435.60844	0.93687
1433.55464	0.93797
1431.50084	0.93966
1429.44703	0.94165
1427.39323	0.94305
1425.33943	0.94388
1423.28562	0.94445
1421.23182	0.94462
1419.17802	0.94472
1417.12421	0.94557
1415.07041	0.94691
1413.01661	0.94796
1410.96280	0.94885
1408.90900	0.95007
1406.85520	0.95156
1404.80139	0.95291
1402.74759	0.95392
1400.69379	0.95491
1398.63999	0.95581
1396.58618	0.95631
1394.53238	0.95648
1392.47858	0.95645
1390.42477	0.95641
1388.37097	0.95635
1386.31717	0.95618
1384.26336	0.95595
1382.20956	0.95551
1380.15576	0.95479
1378.10195	0.95421
1376.04815	0.95435
1373.99435	0.95505
1371.94054	0.95528
1369.88674	0.95503
1367.83294	0.95497
1365.77913	0.95528
1363.72533	0.95595
1361.67153	0.95694
1359.61772	0.95800
1357.56392	0.95895
1355.51012	0.95964
1353.45631	0.96001
1351.40251	0.96016
1349.34871	0.96034
1347.29491	0.96087
1345.24110	0.96161
1343.18730	0.96225
1341.13350	0.96259
1339.07969	0.96281
1337.02589	0.96301
1334.97209	0.96297
1332.91828	0.96278
1330.86448	0.96248
1328.81068	0.96230
1326.75687	0.96239
1324.70307	0.96234
1322.64927	0.96182
1320.59546	0.96132
1318.54166	0.96122
1316.48786	0.96116
1314.43405	0.96094
1312.38025	0.96080
1310.32645	0.96072
1308.27264	0.96056
1306.21884	0.96023
1304.16504	0.95984
1302.11123	0.95975
1300.05743	0.95998
1298.00363	0.96024
1295.94982	0.96023
1293.89602	0.95991
1291.84222	0.95946
1289.78842	0.95906
1287.73461	0.95882
1285.68081	0.95856
1283.62701	0.95808
1281.57320	0.95752
1279.51940	0.95706
1277.46560	0.95668
1275.41179	0.95626
1273.35799	0.95578
1271.30419	0.95514
1269.25038	0.95421
1267.19658	0.95305
1265.14278	0.95196
1263.08897	0.95120
1261.03517	0.95065
1258.98137	0.95004
1256.92756	0.94947
1254.87376	0.94903
1252.81996	0.94878
1250.76615	0.94846
1248.71235	0.94759
1246.65855	0.94662
1244.60474	0.94611
1242.55094	0.94557
1240.49714	0.94470
1238.44334	0.94388
1236.38953	0.94333
1234.33573	0.94300
1232.28193	0.94250
1230.22812	0.94182
1228.17432	0.94133
1226.12052	0.94098
1224.06671	0.94057
1222.01291	0.93994
1219.95911	0.93911
1217.90530	0.93828
1215.85150	0.93734
1213.79770	0.93652
1211.74389	0.93577
1209.69009	0.93464
1207.63629	0.93332
1205.58248	0.93196
1203.52868	0.93042
1201.47488	0.92862
1199.42107	0.92678
1197.36727	0.92521
1195.31347	0.92357
1193.25966	0.92134
1191.20586	0.91873
1189.15206	0.91582
1187.09825	0.91251
1185.04445	0.90912
1182.99065	0.90580
1180.93685	0.90237
1178.88304	0.89895
1176.82924	0.89557
1174.77544	0.89185
1172.72163	0.88764
1170.66783	0.88319
1168.61403	0.87897
1166.56022	0.87516
1164.50642	0.87167
1162.45262	0.86844
1160.39881	0.86533
1158.34501	0.86244
1156.29121	0.85963
1154.23740	0.85660
1152.18360	0.85340
1150.12980	0.84997
1148.07599	0.84646
1146.02219	0.84318
1143.96839	0.84008
1141.91458	0.83714
1139.86078	0.83410
1137.80698	0.83049
1135.75317	0.82670
1133.69937	0.82315
1131.64557	0.81914
1129.59176	0.81457
1127.53796	0.81013
1125.48416	0.80510
1123.43036	0.79876
1121.37655	0.79162
1119.32275	0.78432
1117.26895	0.77747
1115.21514	0.77145
1113.16134	0.76602
1111.10754	0.76065
1109.05373	0.75549
1106.99993	0.75126
1104.94613	0.74799
1102.89232	0.74501
1100.83852	0.74198
1098.78472	0.73902
1096.73091	0.73625
1094.67711	0.73453
1092.62331	0.73408
1090.56950	0.73345
1088.51570	0.73205
1086.46190	0.73073
1084.40809	0.72970
1082.35429	0.72874
1080.30049	0.72802
1078.24668	0.72750
1076.19288	0.72651
1074.13908	0.72493
1072.08528	0.72340
1070.03147	0.72166
1067.97767	0.71906
1065.92387	0.71544
1063.87006	0.71129
1061.81626	0.70714
1059.76246	0.70258
1057.70865	0.69719
1055.65485	0.69111
1053.60105	0.68449
1051.54724	0.67757
1049.49344	0.67044
1047.43964	0.66297
1045.38583	0.65535
1043.33203	0.64762
1041.27823	0.63989
1039.22442	0.63282
1037.17062	0.62672
1035.11682	0.62139
1033.06301	0.61711
1031.00921	0.61414
1028.95541	0.61257
1026.90160	0.61233
1024.84780	0.61291
1022.79400	0.61390
1020.74019	0.61483
1018.68639	0.61532
1016.63259	0.61554
1014.57879	0.61562
1012.52498	0.61511
1010.47118	0.61408
1008.41738	0.61339
1006.36357	0.61354
1004.30977	0.61520
1002.25597	0.61933
1000.20216	0.62587
998.14836	0.63373
996.09456	0.64223
994.04075	0.65140
991.98695	0.66118
989.93315	0.67141
987.87934	0.68180
985.82554	0.69209
983.77174	0.70258
981.71793	0.71324
979.66413	0.72353
977.61033	0.73363
975.55652	0.74392
973.50272	0.75401
971.44892	0.76326
969.39511	0.77139
967.34131	0.77876
965.28751	0.78601
963.23371	0.79298
961.17990	0.79912
959.12610	0.80432
957.07230	0.80884
955.01849	0.81317
952.96469	0.81742
950.91089	0.82100
948.85708	0.82371
946.80328	0.82624
944.74948	0.82851
942.69567	0.83010
940.64187	0.83156
938.58807	0.83305
936.53426	0.83437
934.48046	0.83573
932.42666	0.83716
930.37285	0.83824
928.31905	0.83869
926.26525	0.83854
924.21144	0.83782
922.15764	0.83649
920.10384	0.83422
918.05003	0.83122
915.99623	0.82836
913.94243	0.82669
911.88862	0.82719
909.83482	0.83017
907.78102	0.83567
905.72722	0.84334
903.67341	0.85160
901.61961	0.85904
899.56581	0.86537
897.51200	0.87052
895.45820	0.87456
893.40440	0.87802
891.35059	0.88163
889.29679	0.88525
887.24299	0.88796
885.18918	0.88944
883.13538	0.89038
881.08158	0.89111
879.02777	0.89158
876.97397	0.89239
874.92017	0.89345
872.86636	0.89419
870.81256	0.89425
868.75876	0.89283
866.70495	0.89024
864.65115	0.88872
862.59735	0.89003
860.54354	0.89398
858.48974	0.89934
856.43594	0.90426
854.38213	0.90770
852.32833	0.91026
850.27453	0.91261
848.22073	0.91435
846.16692	0.91483
844.11312	0.91441
842.05932	0.91406
840.00551	0.91400
837.95171	0.91402
835.89791	0.91399
833.84410	0.91341
831.79030	0.91248
829.73650	0.91203
827.68269	0.91192
825.62889	0.91153
823.57509	0.91101
821.52128	0.91072
819.46748	0.91050
817.41368	0.90991
815.35987	0.90882
813.30607	0.90780
811.25227	0.90678
809.19846	0.90467
807.14466	0.90127
805.09086	0.89770
803.03705	0.89474
800.98325	0.89228
798.92945	0.89012
796.87565	0.88918
794.82184	0.88964
792.76804	0.88987
790.71424	0.88949
788.66043	0.88897
786.60663	0.88861
784.55283	0.88821
782.49902	0.88707
780.44522	0.88603
778.39142	0.88632
776.33761	0.88762
774.28381	0.88843
772.23001	0.88818
770.17620	0.88754
768.12240	0.88659
766.06860	0.88542
764.01479	0.88386
761.96099	0.88170
759.90719	0.88002
757.85338	0.87894
755.79958	0.87771
753.74578	0.87634
751.69197	0.87503
749.63817	0.87468
747.58437	0.87587
745.53056	0.87711
743.47676	0.87726
741.42296	0.87698
739.36916	0.87672
737.31535	0.87555
735.26155	0.86999
733.20775	0.85491
731.15394	0.83550
729.10014	0.82785
727.04634	0.83278
724.99253	0.83416
722.93873	0.82010
720.88493	0.79062
718.83112	0.76333
716.77732	0.75928
714.72352	0.77864
712.66971	0.80550
710.61591	0.82556
708.56211	0.83597
706.50830	0.83964
704.45450	0.83910
702.40070	0.83626
700.34689	0.83266
698.29309	0.82988
696.23929	0.82889
694.18548	0.82900
692.13168	0.82934
690.07788	0.82976
688.02408	0.82999
685.97027	0.83065
683.91647	0.83160
681.86267	0.83141
679.80886	0.82993
677.75506	0.82776
675.70126	0.82521
673.64745	0.82264
671.59365	0.82093
669.53985	0.82036
667.48604	0.82107
665.43224	0.82337
663.37844	0.82603
661.32463	0.82868
659.27083	0.83184
657.21703	0.83459
655.16322	0.83648
653.10942	0.83823
651.05562	0.83896
649.00181	0.83894
646.94801	0.83898
644.89421	0.83903
642.84040	0.83950
640.78660	0.83924
638.73280	0.83788
636.67899	0.83706
634.62519	0.83649
632.57139	0.83574
630.51759	0.83544
628.46378	0.83531
626.40998	0.83443
624.35618	0.83221
622.30237	0.82997
620.24857	0.82874
618.19477	0.82756
616.14096	0.82610
614.08716	0.82407
612.03336	0.82040
609.97955	0.81606
607.92575	0.81237
605.87195	0.80823
603.81814	0.80308
601.76434	0.79913
599.71054	0.79781
597.65673	0.79721
595.60293	0.79550
593.54913	0.79371
591.49532	0.79321
589.44152	0.79253
587.38772	0.79027
585.33391	0.78823
583.28011	0.78777
581.22631	0.78757
579.17250	0.78646
577.11870	0.78492
575.06490	0.78384
573.01110	0.78354
570.95729	0.78280
568.90349	0.78022
566.84969	0.77629
564.79588	0.77222
562.74208	0.76883
560.68828	0.76606
558.63447	0.76318
556.58067	0.75933
554.52687	0.75516
552.47306	0.75308
550.41926	0.75187
548.36546	0.74783
546.31165	0.74157
544.25785	0.73575
542.20405	0.73011
540.15024	0.72406
538.09644	0.71788
536.04264	0.71307
533.98883	0.71146
531.93503	0.71123
529.88123	0.71086
527.82742	0.71194
525.77362	0.71493
523.71982	0.71845
521.66602	0.72156
519.61221	0.72510
517.55841	0.72955
515.50461	0.73302
513.45080	0.73543
511.39700	0.73803
509.34320	0.74052
507.28939	0.74298
505.23559	0.74529
503.18179	0.74648
501.12798	0.74779
499.07418	0.75063
497.02038	0.75273
494.96657	0.75239
492.91277	0.75012
490.85897	0.74737
488.80516	0.74500
486.75136	0.74030
484.69756	0.73174
482.64375	0.72229
480.58995	0.71305
478.53615	0.70193
476.48234	0.68865
474.42854	0.67593
472.37474	0.66516
470.32093	0.65631
468.26713	0.65037
466.21333	0.64849
464.15953	0.65024
462.10572	0.65378
460.05192	0.65868
457.99812	0.66699
455.94431	0.67601
453.89051	0.67998
451.83671	0.68202
449.78290	0.68624
447.72910	0.69132
445.67530	0.69507
443.62149	0.69810
441.56769	0.69982
439.51389	0.69780
437.46008	0.69531
435.40628	0.69674
433.35248	0.69907
431.29867	0.69794
429.24487	0.69563
427.19107	0.69596
425.13726	0.70131
423.08346	0.70930
421.02966	0.71051
418.97585	0.70529
416.92205	0.70860
414.86825	0.71776
412.81445	0.72520
410.76064	0.73153
408.70684	0.74055
406.65304	0.75044
404.59923	0.75630
402.54543	0.76186
400.49163	0.77344
398.43782	0.78539
