3996.70104	0.98806
3994.64724	0.98812
3992.59344	0.98782
3990.53964	0.98799
3988.48583	0.98830
3986.43203	0.98815
3984.37823	0.98803
3982.32442	0.98814
3980.27062	0.98823
3978.21682	0.98796
3976.16301	0.98725
3974.10921	0.98710
3972.05541	0.98790
3970.00160	0.98860
3967.94780	0.98856
3965.89400	0.98819
3963.84019	0.98808
3961.78639	0.98837
3959.73259	0.98847
3957.67878	0.98816
3955.62498	0.98813
3953.57118	0.98861
3951.51737	0.98891
3949.46357	0.98859
3947.40977	0.98804
3945.35596	0.98767
3943.30216	0.98761
3941.24836	0.98769
3939.19455	0.98765
3937.14075	0.98762
3935.08695	0.98792
3933.03315	0.98832
3930.97934	0.98813
3928.92554	0.98759
3926.87174	0.98718
3924.81793	0.98748
3922.76413	0.98866
3920.71033	0.98905
3918.65652	0.98835
3916.60272	0.98825
3914.54892	0.98857
3912.49511	0.98850
3910.44131	0.98843
3908.38751	0.98824
3906.33370	0.98774
3904.27990	0.98757
3902.22610	0.98805
3900.17229	0.98834
3898.11849	0.98834
3896.06469	0.98833
3894.01088	0.98813
3891.95708	0.98787
3889.90328	0.98786
3887.84947	0.98820
3885.79567	0.98857
3883.74187	0.98849
3881.68807	0.98865
3879.63426	0.98921
3877.58046	0.98894
3875.52666	0.98812
3873.47285	0.98796
3871.41905	0.98868
3869.36525	0.98923
3867.31144	0.98870
3865.25764	0.98778
3863.20384	0.98716
3861.15003	0.98724
3859.09623	0.98793
3857.04243	0.98857
3854.98862	0.98881
3852.93482	0.98884
3850.88102	0.98883
3848.82721	0.98873
3846.77341	0.98859
3844.71961	0.98835
3842.66580	0.98789
3840.61200	0.98750
3838.55820	0.98778
3836.50439	0.98820
3834.45059	0.98837
3832.39679	0.98889
3830.34298	0.98929
3828.28918	0.98913
3826.23538	0.98852
3824.18158	0.98803
3822.12777	0.98847
3820.07397	0.98959
3818.02017	0.98991
3815.96636	0.98960
3813.91256	0.98922
3811.85876	0.98859
3809.80495	0.98796
3807.75115	0.98781
3805.69735	0.98790
3803.64354	0.98801
3801.58974	0.98848
3799.53594	0.98855
3797.48213	0.98799
3795.42833	0.98784
3793.37453	0.98822
3791.32072	0.98871
3789.26692	0.98902
3787.21312	0.98895
3785.15931	0.98879
3783.10551	0.98890
3781.05171	0.98933
3778.99790	0.98970
3776.94410	0.98938
3774.89030	0.98866
3772.83650	0.98829
3770.78269	0.98853
3768.72889	0.98904
3766.67509	0.98943
3764.62128	0.98945
3762.56748	0.98870
3760.51368	0.98797
3758.45987	0.98812
3756.40607	0.98794
3754.35227	0.98720
3752.29846	0.98745
3750.24466	0.98882
3748.19086	0.98947
3746.13705	0.98957
3744.08325	0.98965
3742.02945	0.98961
3739.97564	0.98947
3737.92184	0.98939
3735.86804	0.98908
3733.81423	0.98844
3731.76043	0.98789
3729.70663	0.98757
3727.65282	0.98709
3725.59902	0.98606
3723.54522	0.98562
3721.49141	0.98624
3719.43761	0.98640
3717.38381	0.98523
3715.33001	0.98283
3713.27620	0.97960
3711.22240	0.97635
3709.16860	0.97423
3707.11479	0.97242
3705.06099	0.96967
3703.00719	0.96610
3700.95338	0.96269
3698.89958	0.96045
3696.84578	0.95972
3694.79197	0.96033
3692.73817	0.96206
3690.68437	0.96473
3688.63056	0.96727
3686.57676	0.96854
3684.52296	0.96895
3682.46915	0.96910
3680.41535	0.96946
3678.36155	0.97001
3676.30774	0.97076
3674.25394	0.97065
3672.20014	0.96917
3670.14633	0.96791
3668.09253	0.96722
3666.03873	0.96647
3663.98492	0.96546
3661.93112	0.96439
3659.87732	0.96341
3657.82352	0.96251
3655.76971	0.96201
3653.71591	0.96140
3651.66211	0.96017
3649.60830	0.95983
3647.55450	0.96144
3645.50070	0.96175
3643.44689	0.96099
3641.39309	0.96046
3639.33929	0.95996
3637.28548	0.95904
3635.23168	0.95741
3633.17788	0.95510
3631.12407	0.95291
3629.07027	0.95171
3627.01647	0.95187
3624.96266	0.95175
3622.90886	0.95091
3620.85506	0.95027
3618.80125	0.95108
3616.74745	0.95232
3614.69365	0.95258
3612.63984	0.95249
3610.58604	0.95262
3608.53224	0.95350
3606.47844	0.95462
3604.42463	0.95501
3602.37083	0.95499
3600.31703	0.95443
3598.26322	0.95333
3596.20942	0.95280
3594.15562	0.95327
3592.10181	0.95369
3590.04801	0.95355
3587.99421	0.95363
3585.94040	0.95431
3583.88660	0.95423
3581.83280	0.95335
3579.77899	0.95265
3577.72519	0.95249
3575.67139	0.95252
3573.61758	0.95224
3571.56378	0.95188
3569.50998	0.95158
3567.45617	0.95105
3565.40237	0.95076
3563.34857	0.95082
3561.29476	0.95070
3559.24096	0.95046
3557.18716	0.95025
3555.13335	0.94988
3553.07955	0.94946
3551.02575	0.94899
3548.97195	0.94813
3546.91814	0.94740
3544.86434	0.94752
3542.81054	0.94780
3540.75673	0.94734
3538.70293	0.94672
3536.64913	0.94695
3534.59532	0.94759
3532.54152	0.94748
3530.48772	0.94679
3528.43391	0.94618
3526.38011	0.94592
3524.32631	0.94629
3522.27250	0.94664
3520.21870	0.94626
3518.16490	0.94589
3516.11109	0.94621
3514.05729	0.94691
3512.00349	0.94726
3509.94968	0.94707
3507.89588	0.94675
3505.84208	0.94621
3503.78827	0.94549
3501.73447	0.94514
3499.68067	0.94490
3497.62687	0.94450
3495.57306	0.94439
3493.51926	0.94449
3491.46546	0.94440
3489.41165	0.94413
3487.35785	0.94390
3485.30405	0.94352
3483.25024	0.94278
3481.19644	0.94222
3479.14264	0.94237
3477.08883	0.94266
3475.03503	0.94242
3472.98123	0.94200
3470.92742	0.94160
3468.87362	0.94095
3466.81982	0.94042
3464.76601	0.94002
3462.71221	0.93965
3460.65841	0.93979
3458.60460	0.94014
3456.55080	0.94024
3454.49700	0.93997
3452.44319	0.93930
3450.38939	0.93862
3448.33559	0.93825
3446.28178	0.93788
3444.22798	0.93728
3442.17418	0.93666
3440.12038	0.93588
3438.06657	0.93541
3436.01277	0.93596
3433.95897	0.93684
3431.90516	0.93706
3429.85136	0.93652
3427.79756	0.93586
3425.74375	0.93561
3423.68995	0.93553
3421.63615	0.93534
3419.58234	0.93490
3417.52854	0.93434
3415.47474	0.93418
3413.42093	0.93401
3411.36713	0.93327
3409.31333	0.93268
3407.25952	0.93261
3405.20572	0.93229
3403.15192	0.93167
3401.09811	0.93139
3399.04431	0.93171
3396.99051	0.93229
3394.93670	0.93249
3392.88290	0.93233
3390.82910	0.93241
3388.77529	0.93251
3386.72149	0.93221
3384.66769	0.93201
3382.61389	0.93241
3380.56008	0.93313
3378.50628	0.93360
3376.45248	0.93365
3374.39867	0.93341
3372.34487	0.93312
3370.29107	0.93293
3368.23726	0.93282
3366.18346	0.93269
3364.12966	0.93263
3362.07585	0.93283
3360.02205	0.93323
3357.96825	0.93370
3355.91444	0.93404
3353.86064	0.93432
3351.80684	0.93442
3349.75303	0.93412
3347.69923	0.93406
3345.64543	0.93442
3343.59162	0.93467
3341.53782	0.93482
3339.48402	0.93497
3337.43021	0.93502
3335.37641	0.93511
3333.32261	0.93509
3331.26881	0.93498
3329.21500	0.93502
3327.16120	0.93504
3325.10740	0.93516
3323.05359	0.93569
3320.99979	0.93624
3318.94599	0.93635
3316.89218	0.93629
3314.83838	0.93631
3312.78458	0.93636
3310.73077	0.93665
3308.67697	0.93695
3306.62317	0.93683
3304.56936	0.93638
3302.51556	0.93600
3300.46176	0.93610
3298.40795	0.93676
3296.35415	0.93736
3294.30035	0.93749
3292.24654	0.93755
3290.19274	0.93750
3288.13894	0.93722
3286.08513	0.93741
3284.03133	0.93792
3281.97753	0.93811
3279.92372	0.93815
3277.86992	0.93818
3275.81612	0.93834
3273.76232	0.93883
3271.70851	0.93912
3269.65471	0.93900
3267.60091	0.93886
3265.54710	0.93899
3263.49330	0.93972
3261.43950	0.94045
3259.38569	0.94036
3257.33189	0.94009
3255.27809	0.94042
3253.22428	0.94105
3251.17048	0.94149
3249.11668	0.94186
3247.06287	0.94231
3245.00907	0.94259
3242.95527	0.94279
3240.90146	0.94303
3238.84766	0.94313
3236.79386	0.94343
3234.74005	0.94412
3232.68625	0.94463
3230.63245	0.94459
3228.57864	0.94447
3226.52484	0.94445
3224.47104	0.94463
3222.41724	0.94533
3220.36343	0.94599
3218.30963	0.94645
3216.25583	0.94686
3214.20202	0.94705
3212.14822	0.94736
3210.09442	0.94774
3208.04061	0.94786
3205.98681	0.94808
3203.93301	0.94852
3201.87920	0.94915
3199.82540	0.94990
3197.77160	0.95044
3195.71779	0.95075
3193.66399	0.95088
3191.61019	0.95101
3189.55638	0.95137
3187.50258	0.95185
3185.44878	0.95219
3183.39497	0.95243
3181.34117	0.95286
3179.28737	0.95346
3177.23356	0.95404
3175.17976	0.95444
3173.12596	0.95477
3171.07215	0.95521
3169.01835	0.95554
3166.96455	0.95543
3164.91075	0.95496
3162.85694	0.95497
3160.80314	0.95577
3158.74934	0.95653
3156.69553	0.95675
3154.64173	0.95688
3152.58793	0.95727
3150.53412	0.95776
3148.48032	0.95836
3146.42652	0.95897
3144.37271	0.95927
3142.31891	0.95943
3140.26511	0.95976
3138.21130	0.96014
3136.15750	0.96031
3134.10370	0.96040
3132.04989	0.96068
3129.99609	0.96121
3127.94229	0.96187
3125.88848	0.96246
3123.83468	0.96283
3121.78088	0.96322
3119.72707	0.96362
3117.67327	0.96349
3115.61947	0.96319
3113.56566	0.96335
3111.51186	0.96384
3109.45806	0.96446
3107.40426	0.96486
3105.35045	0.96485
3103.29665	0.96479
3101.24285	0.96478
3099.18904	0.96472
3097.13524	0.96490
3095.08144	0.96498
3093.02763	0.96451
3090.97383	0.96428
3088.92003	0.96479
3086.86622	0.96554
3084.81242	0.96606
3082.75862	0.96620
3080.70481	0.96612
3078.65101	0.96611
3076.59721	0.96638
3074.54340	0.96676
3072.48960	0.96678
3070.43580	0.96671
3068.38199	0.96698
3066.32819	0.96721
3064.27439	0.96739
3062.22058	0.96790
3060.16678	0.96857
3058.11298	0.96893
3056.05918	0.96878
3054.00537	0.96863
3051.95157	0.96872
3049.89777	0.96880
3047.84396	0.96903
3045.79016	0.96932
3043.73636	0.96941
3041.68255	0.96980
3039.62875	0.97053
3037.57495	0.97103
3035.52114	0.97111
3033.46734	0.97084
3031.41354	0.97067
3029.35973	0.97107
3027.30593	0.97158
3025.25213	0.97162
3023.19832	0.97121
3021.14452	0.97070
3019.09072	0.97066
3017.03691	0.97136
3014.98311	0.97202
3012.92931	0.97228
3010.87550	0.97265
3008.82170	0.97296
3006.76790	0.97268
3004.71409	0.97227
3002.66029	0.97241
3000.60649	0.97264
2998.55269	0.97250
2996.49888	0.97223
2994.44508	0.97175
2992.39128	0.97121
2990.33747	0.97115
2988.28367	0.97111
2986.22987	0.97064
2984.17606	0.96989
2982.12226	0.96883
2980.06846	0.96785
2978.01465	0.96722
2975.96085	0.96630
2973.90705	0.96466
2971.85324	0.96301
2969.79944	0.96171
2967.74564	0.95993
2965.69183	0.95739
2963.63803	0.95499
2961.58423	0.95322
2959.53042	0.95174
2957.47662	0.95033
2955.42282	0.94892
2953.36901	0.94761
2951.31521	0.94669
2949.26141	0.94594
2947.20761	0.94466
2945.15380	0.94235
2943.10000	0.93859
2941.04620	0.93313
2938.99239	0.92641
2936.93859	0.91861
2934.88479	0.90933
2932.83098	0.89843
2930.77718	0.88595
2928.72338	0.87186
2926.66957	0.85615
2924.61577	0.83856
2922.56197	0.81875
2920.50816	0.79766
2918.45436	0.77847
2916.40056	0.76574
2914.34675	0.76343
2912.29295	0.77185
2910.23915	0.78686
2908.18534	0.80347
2906.13154	0.81874
2904.07774	0.83179
2902.02393	0.84288
2899.97013	0.85206
2897.91633	0.85956
2895.86252	0.86634
2893.80872	0.87312
2891.75492	0.87997
2889.70112	0.88681
2887.64731	0.89360
2885.59351	0.90029
2883.53971	0.90677
2881.48590	0.91309
2879.43210	0.91887
2877.37830	0.92348
2875.32449	0.92699
2873.27069	0.92960
2871.21689	0.93146
2869.16308	0.93262
2867.10928	0.93236
2865.05548	0.92983
2863.00167	0.92509
2860.94787	0.91775
2858.89407	0.90631
2856.84026	0.88990
2854.78646	0.86777
2852.73266	0.83968
2850.67885	0.81025
2848.62505	0.79050
2846.57125	0.78982
2844.51744	0.80725
2842.46364	0.83382
2840.40984	0.86073
2838.35603	0.88352
2836.30223	0.90149
2834.24843	0.91516
2832.19463	0.92538
2830.14082	0.93338
2828.08702	0.93994
2826.03322	0.94521
2823.97941	0.94914
2821.92561	0.95235
2819.87181	0.95538
2817.81800	0.95789
2815.76420	0.95989
2813.71040	0.96171
2811.65659	0.96333
2809.60279	0.96462
2807.54899	0.96589
2805.49518	0.96735
2803.44138	0.96838
2801.38758	0.96880
2799.33377	0.96930
2797.27997	0.97017
2795.22617	0.97110
2793.17236	0.97194
2791.11856	0.97244
2789.06476	0.97279
2787.01095	0.97349
2784.95715	0.97432
2782.90335	0.97490
2780.84955	0.97527
2778.79574	0.97545
2776.74194	0.97547
2774.68814	0.97552
2772.63433	0.97583
2770.58053	0.97635
2768.52673	0.97672
2766.47292	0.97693
2764.41912	0.97716
2762.36532	0.97755
2760.31151	0.97806
2758.25771	0.97859
2756.20391	0.97905
2754.15010	0.97914
2752.09630	0.97891
2750.04250	0.97877
2747.98869	0.97883
2745.93489	0.97887
2743.88109	0.97880
2741.82728	0.97894
2739.77348	0.97940
2737.71968	0.97974
2735.66587	0.97994
2733.61207	0.98012
2731.55827	0.98007
2729.50446	0.97996
2727.45066	0.98001
2725.39686	0.98012
2723.34306	0.98013
2721.28925	0.98013
2719.23545	0.98016
2717.18165	0.98011
2715.12784	0.98021
2713.07404	0.98073
2711.02024	0.98109
2708.96643	0.98078
2706.91263	0.98031
2704.85883	0.98048
2702.80502	0.98112
2700.75122	0.98147
2698.69742	0.98124
2696.64361	0.98088
2694.58981	0.98091
2692.53601	0.98125
2690.48220	0.98165
2688.42840	0.98205
2686.37460	0.98216
2684.32079	0.98192
2682.26699	0.98173
2680.21319	0.98189
2678.15938	0.98218
2676.10558	0.98207
2674.05178	0.98167
2671.99797	0.98163
2669.94417	0.98179
2667.89037	0.98177
2665.83657	0.98168
2663.78276	0.98153
2661.72896	0.98128
2659.67516	0.98121
2657.62135	0.98158
2655.56755	0.98194
2653.51375	0.98194
2651.45994	0.98171
2649.40614	0.98155
2647.35234	0.98160
2645.29853	0.98168
2643.24473	0.98193
2641.19093	0.98234
2639.13712	0.98221
2637.08332	0.98161
2635.02952	0.98129
2632.97571	0.98141
2630.92191	0.98182
2628.86811	0.98229
2626.81430	0.98261
2624.76050	0.98290
2622.70670	0.98315
2620.65289	0.98330
2618.59909	0.98348
2616.54529	0.98373
2614.49149	0.98388
2612.43768	0.98378
2610.38388	0.98357
2608.33008	0.98343
2606.27627	0.98330
2604.22247	0.98323
2602.16867	0.98340
2600.11486	0.98384
2598.06106	0.98420
2596.00726	0.98408
2593.95345	0.98384
2591.89965	0.98394
2589.84585	0.98432
2587.79204	0.98499
2585.73824	0.98537
2583.68444	0.98501
2581.63063	0.98457
2579.57683	0.98435
2577.52303	0.98436
2575.46922	0.98467
2573.41542	0.98537
2571.36162	0.98609
2569.30781	0.98620
2567.25401	0.98601
2565.20021	0.98600
2563.14640	0.98618
2561.09260	0.98633
2559.03880	0.98641
2556.98500	0.98634
2554.93119	0.98621
2552.87739	0.98614
2550.82359	0.98607
2548.76978	0.98615
2546.71598	0.98635
2544.66218	0.98643
2542.60837	0.98633
2540.55457	0.98630
2538.50077	0.98648
2536.44696	0.98692
2534.39316	0.98735
2532.33936	0.98734
2530.28555	0.98677
2528.23175	0.98609
2526.17795	0.98629
2524.12414	0.98705
2522.07034	0.98724
2520.01654	0.98684
2517.96273	0.98634
2515.90893	0.98639
2513.85513	0.98705
2511.80132	0.98744
2509.74752	0.98718
2507.69372	0.98684
2505.63992	0.98716
2503.58611	0.98756
2501.53231	0.98723
2499.47851	0.98714
2497.42470	0.98778
2495.37090	0.98820
2493.31710	0.98796
2491.26329	0.98767
2489.20949	0.98776
2487.15569	0.98803
2485.10188	0.98799
2483.04808	0.98783
2480.99428	0.98816
2478.94047	0.98848
2476.88667	0.98818
2474.83287	0.98775
2472.77906	0.98780
2470.72526	0.98802
2468.67146	0.98786
2466.61765	0.98762
2464.56385	0.98779
2462.51005	0.98818
2460.45624	0.98855
2458.40244	0.98869
2456.34864	0.98838
2454.29483	0.98835
2452.24103	0.98887
2450.18723	0.98893
2448.13343	0.98818
2446.07962	0.98738
2444.02582	0.98736
2441.97202	0.98815
2439.91821	0.98867
2437.86441	0.98821
2435.81061	0.98759
2433.75680	0.98743
2431.70300	0.98732
2429.64920	0.98719
2427.59539	0.98750
2425.54159	0.98804
2423.48779	0.98798
2421.43398	0.98752
2419.38018	0.98736
2417.32638	0.98747
2415.27257	0.98751
2413.21877	0.98752
2411.16497	0.98769
2409.11116	0.98799
2407.05736	0.98817
2405.00356	0.98817
2402.94975	0.98826
2400.89595	0.98839
2398.84215	0.98824
2396.78834	0.98785
2394.73454	0.98772
2392.68074	0.98807
2390.62694	0.98840
2388.57313	0.98853
2386.51933	0.98839
2384.46553	0.98763
2382.41172	0.98703
2380.35792	0.98743
2378.30412	0.98798
2376.25031	0.98785
2374.19651	0.98787
2372.14271	0.98874
2370.08890	0.98941
2368.03510	0.98898
2365.98130	0.98874
2363.92749	0.98949
2361.87369	0.98948
2359.81989	0.98844
2357.76608	0.98785
2355.71228	0.98747
2353.65848	0.98711
2351.60467	0.98668
2349.55087	0.98595
2347.49707	0.98576
2345.44326	0.98665
2343.38946	0.98789
2341.33566	0.98821
2339.28186	0.98702
2337.22805	0.98582
2335.17425	0.98620
2333.12045	0.98655
2331.06664	0.98584
2329.01284	0.98554
2326.95904	0.98519
2324.90523	0.98411
2322.85143	0.98407
2320.79763	0.98514
2318.74382	0.98589
2316.69002	0.98633
2314.63622	0.98650
2312.58241	0.98660
2310.52861	0.98696
2308.47481	0.98701
2306.42100	0.98628
2304.36720	0.98554
2302.31340	0.98551
2300.25959	0.98586
2298.20579	0.98644
2296.15199	0.98704
2294.09818	0.98740
2292.04438	0.98760
2289.99058	0.98735
2287.93677	0.98700
2285.88297	0.98762
2283.82917	0.98863
2281.77537	0.98848
2279.72156	0.98756
2277.66776	0.98752
2275.61396	0.98790
2273.56015	0.98747
2271.50635	0.98702
2269.45255	0.98740
2267.39874	0.98776
2265.34494	0.98695
2263.29114	0.98595
2261.23733	0.98611
2259.18353	0.98675
2257.12973	0.98718
2255.07592	0.98763
2253.02212	0.98759
2250.96832	0.98686
2248.91451	0.98656
2246.86071	0.98650
2244.80691	0.98664
2242.75310	0.98814
2240.69930	0.99028
2238.64550	0.99096
2236.59169	0.98997
2234.53789	0.98905
2232.48409	0.98827
2230.43029	0.98810
2228.37648	0.98931
2226.32268	0.98946
2224.26888	0.98830
2222.21507	0.98831
2220.16127	0.98876
2218.10747	0.98811
2216.05366	0.98727
2213.99986	0.98766
2211.94606	0.98915
2209.89225	0.99093
2207.83845	0.99228
2205.78465	0.99153
2203.73084	0.98930
2201.67704	0.98778
2199.62324	0.98704
2197.56943	0.98806
2195.51563	0.99016
2193.46183	0.98972
2191.40802	0.98733
2189.35422	0.98662
2187.30042	0.98881
2185.24661	0.99170
2183.19281	0.99150
2181.13901	0.98944
2179.08520	0.99055
2177.03140	0.99327
2174.97760	0.99262
2172.92380	0.99122
2170.86999	0.99173
2168.81619	0.99084
2166.76239	0.99005
2164.70858	0.99040
2162.65478	0.98757
2160.60098	0.98361
2158.54717	0.98374
2156.49337	0.98647
2154.43957	0.98844
2152.38576	0.99086
2150.33196	0.99343
2148.27816	0.99389
2146.22435	0.99335
2144.17055	0.99255
2142.11675	0.99103
2140.06294	0.98977
2138.00914	0.98964
2135.95534	0.99061
2133.90153	0.99259
2131.84773	0.99393
2129.79393	0.99298
2127.74012	0.99194
2125.68632	0.99248
2123.63252	0.99216
2121.57871	0.98980
2119.52491	0.98796
2117.47111	0.98796
2115.41731	0.98809
2113.36350	0.98802
2111.30970	0.98850
2109.25590	0.98905
2107.20209	0.98945
2105.14829	0.98970
2103.09449	0.98939
2101.04068	0.98870
2098.98688	0.98866
2096.93308	0.98955
2094.87927	0.99069
2092.82547	0.99111
2090.77167	0.99034
2088.71786	0.98925
2086.66406	0.98868
2084.61026	0.98838
2082.55645	0.98864
2080.50265	0.98943
2078.44885	0.98937
2076.39504	0.98884
2074.34124	0.98892
2072.28744	0.98930
2070.23363	0.98990
2068.17983	0.99006
2066.12603	0.98916
2064.07223	0.98862
2062.01842	0.98880
2059.96462	0.98862
2057.91082	0.98840
2055.85701	0.98890
2053.80321	0.99065
2051.74941	0.99183
2049.69560	0.99069
2047.64180	0.98992
2045.58800	0.99144
2043.53419	0.99325
2041.48039	0.99301
2039.42659	0.99140
2037.37278	0.99117
2035.31898	0.99185
2033.26518	0.99112
2031.21137	0.99054
2029.15757	0.99202
2027.10377	0.99466
2025.04996	0.99638
2022.99616	0.99433
2020.94236	0.98952
2018.88855	0.98694
2016.83475	0.98834
2014.78095	0.99037
2012.72714	0.99144
2010.67334	0.99110
2008.61954	0.99012
2006.56574	0.99117
2004.51193	0.99259
2002.45813	0.99239
2000.40433	0.99214
1998.35052	0.99266
1996.29672	0.99200
1994.24292	0.98885
1992.18911	0.98501
1990.13531	0.98435
1988.08151	0.98707
1986.02770	0.98852
1983.97390	0.98754
1981.92010	0.98711
1979.86629	0.98894
1977.81249	0.99175
1975.75869	0.99260
1973.70488	0.99234
1971.65108	0.99293
1969.59728	0.99303
1967.54347	0.99261
1965.48967	0.99209
1963.43587	0.99113
1961.38206	0.99068
1959.32826	0.99092
1957.27446	0.99077
1955.22066	0.99014
1953.16685	0.99024
1951.11305	0.99104
1949.05925	0.99163
1947.00544	0.99207
1944.95164	0.99248
1942.89784	0.99236
1940.84403	0.99152
1938.79023	0.99050
1936.73643	0.98956
1934.68262	0.98876
1932.62882	0.98863
1930.57502	0.98908
1928.52121	0.98932
1926.46741	0.98945
1924.41361	0.99002
1922.35980	0.99040
1920.30600	0.98986
1918.25220	0.98886
1916.19839	0.98837
1914.14459	0.98872
1912.09079	0.98874
1910.03698	0.98850
1907.98318	0.98913
1905.92938	0.98998
1903.87557	0.98978
1901.82177	0.98926
1899.76797	0.98918
1897.71417	0.98926
1895.66036	0.98982
1893.60656	0.99016
1891.55276	0.98983
1889.49895	0.99007
1887.44515	0.99042
1885.39135	0.98987
1883.33754	0.98914
1881.28374	0.98883
1879.22994	0.98905
1877.17613	0.98989
1875.12233	0.99027
1873.06853	0.98945
1871.01472	0.98835
1868.96092	0.98831
1866.90712	0.98928
1864.85331	0.98947
1862.79951	0.98873
1860.74571	0.98827
1858.69190	0.98860
1856.63810	0.98895
1854.58430	0.98918
1852.53049	0.98968
1850.47669	0.98990
1848.42289	0.98929
1846.36908	0.98844
1844.31528	0.98793
1842.26148	0.98780
1840.20768	0.98818
1838.15387	0.98882
1836.10007	0.98897
1834.04627	0.98836
1831.99246	0.98773
1829.93866	0.98768
1827.88486	0.98788
1825.83105	0.98805
1823.77725	0.98834
1821.72345	0.98829
1819.66964	0.98783
1817.61584	0.98770
1815.56204	0.98803
1813.50823	0.98829
1811.45443	0.98846
1809.40063	0.98827
1807.34682	0.98787
1805.29302	0.98805
1803.23922	0.98846
1801.18541	0.98840
1799.13161	0.98801
1797.07781	0.98754
1795.02400	0.98724
1792.97020	0.98724
1790.91640	0.98714
1788.86260	0.98683
1786.80879	0.98665
1784.75499	0.98656
1782.70119	0.98654
1780.64738	0.98653
1778.59358	0.98623
1776.53978	0.98603
1774.48597	0.98618
1772.43217	0.98593
1770.37837	0.98536
1768.32456	0.98543
1766.27076	0.98583
1764.21696	0.98607
1762.16315	0.98573
1760.10935	0.98492
1758.05555	0.98424
1756.00174	0.98355
1753.94794	0.98289
1751.89414	0.98256
1749.84033	0.98254
1747.78653	0.98206
1745.73273	0.98076
1743.67892	0.97905
1741.62512	0.97776
1739.57132	0.97730
1737.51751	0.97712
1735.46371	0.97712
1733.40991	0.97716
1731.35611	0.97646
1729.30230	0.97576
1727.24850	0.97535
1725.19470	0.97482
1723.14089	0.97425
1721.08709	0.97389
1719.03329	0.97355
1716.97948	0.97324
1714.92568	0.97290
1712.87188	0.97241
1710.81807	0.97187
1708.76427	0.97142
1706.71047	0.97089
1704.65666	0.97001
1702.60286	0.96911
1700.54906	0.96822
1698.49525	0.96689
1696.44145	0.96540
1694.38765	0.96363
1692.33384	0.96172
1690.28004	0.95992
1688.22624	0.95849
1686.17243	0.95721
1684.11863	0.95520
1682.06483	0.95302
1680.01103	0.95130
1677.95722	0.94952
1675.90342	0.94775
1673.84962	0.94602
1671.79581	0.94411
1669.74201	0.94210
1667.68821	0.94035
1665.63440	0.93883
1663.58060	0.93747
1661.52680	0.93631
1659.47299	0.93504
1657.41919	0.93359
1655.36539	0.93247
1653.31158	0.93211
1651.25778	0.93171
1649.20398	0.93135
1647.15017	0.93167
1645.09637	0.93181
1643.04257	0.93156
1640.98876	0.93160
1638.93496	0.93178
1636.88116	0.93212
1634.82735	0.93313
1632.77355	0.93376
1630.71975	0.93367
1628.66594	0.93381
1626.61214	0.93461
1624.55834	0.93547
1622.50454	0.93648
1620.45073	0.93756
1618.39693	0.93894
1616.34313	0.94177
1614.28932	0.94437
1612.23552	0.94571
1610.18172	0.94691
1608.12791	0.94824
1606.07411	0.94953
1604.02031	0.95077
1601.96650	0.95191
1599.91270	0.95281
1597.85890	0.95353
1595.80509	0.95411
1593.75129	0.95469
1591.69749	0.95540
1589.64368	0.95605
1587.58988	0.95654
1585.53608	0.95682
1583.48227	0.95689
1581.42847	0.95696
1579.37467	0.95707
1577.32086	0.95724
1575.26706	0.95744
1573.21326	0.95731
1571.15945	0.95681
1569.10565	0.95631
1567.05185	0.95627
1564.99805	0.95630
1562.94424	0.95584
1560.89044	0.95514
1558.83664	0.95523
1556.78283	0.95572
1554.72903	0.95533
1552.67523	0.95476
1550.62142	0.95442
1548.56762	0.95421
1546.51382	0.95386
1544.46001	0.95338
1542.40621	0.95298
1540.35241	0.95387
1538.29860	0.95590
1536.24480	0.95690
1534.19100	0.95777
1532.13719	0.95889
1530.08339	0.95959
1528.02959	0.96019
1525.97578	0.96082
1523.92198	0.96097
1521.86818	0.96119
1519.81437	0.96246
1517.76057	0.96363
1515.70677	0.96419
1513.65297	0.96458
1511.59916	0.96499
1509.54536	0.96541
1507.49156	0.96599
1505.43775	0.96702
1503.38395	0.96803
1501.33015	0.96898
1499.27634	0.96973
1497.22254	0.97021
1495.16874	0.97038
1493.11493	0.97021
1491.06113	0.97001
1489.00733	0.97023
1486.95352	0.97028
1484.89972	0.96952
1482.84592	0.96821
1480.79211	0.96608
1478.73831	0.96174
1476.68451	0.95113
1474.63070	0.93008
1472.57690	0.90659
1470.52310	0.89825
1468.46929	0.89853
1466.41549	0.89711
1464.36169	0.89308
1462.30788	0.89312
1460.25408	0.90014
1458.20028	0.91205
1456.14648	0.92381
1454.09267	0.92986
1452.03887	0.93420
1449.98507	0.93839
1447.93126	0.94184
1445.87746	0.94399
1443.82366	0.94523
1441.76985	0.94640
1439.71605	0.94745
1437.66225	0.94837
1435.60844	0.94968
1433.55464	0.95114
1431.50084	0.95272
1429.44703	0.95447
1427.39323	0.95563
1425.33943	0.95635
1423.28562	0.95717
1421.23182	0.95781
1419.17802	0.95841
1417.12421	0.95899
1415.07041	0.95897
1413.01661	0.95882
1410.96280	0.95912
1408.90900	0.95974
1406.85520	0.96018
1404.80139	0.96054
1402.74759	0.96104
1400.69379	0.96137
1398.63999	0.96168
1396.58618	0.96209
1394.53238	0.96217
1392.47858	0.96217
1390.42477	0.96226
1388.37097	0.96193
1386.31717	0.96107
1384.26336	0.96016
1382.20956	0.95878
1380.15576	0.95648
1378.10195	0.95439
1376.04815	0.95398
1373.99435	0.95528
1371.94054	0.95682
1369.88674	0.95760
1367.83294	0.95807
1365.77913	0.95872
1363.72533	0.95953
1361.67153	0.96055
1359.61772	0.96170
1357.56392	0.96264
1355.51012	0.96299
1353.45631	0.96275
1351.40251	0.96267
1349.34871	0.96319
1347.29491	0.96392
1345.24110	0.96444
1343.18730	0.96498
1341.13350	0.96565
1339.07969	0.96598
1337.02589	0.96587
1334.97209	0.96571
1332.91828	0.96581
1330.86448	0.96619
1328.81068	0.96643
1326.75687	0.96623
1324.70307	0.96592
1322.64927	0.96558
1320.59546	0.96512
1318.54166	0.96488
1316.48786	0.96499
1314.43405	0.96505
1312.38025	0.96482
1310.32645	0.96447
1308.27264	0.96421
1306.21884	0.96404
1304.16504	0.96386
1302.11123	0.96360
1300.05743	0.96343
1298.00363	0.96343
1295.94982	0.96353
1293.89602	0.96382
1291.84222	0.96403
1289.78842	0.96399
1287.73461	0.96410
1285.68081	0.96425
1283.62701	0.96396
1281.57320	0.96335
1279.51940	0.96265
1277.46560	0.96192
1275.41179	0.96155
1273.35799	0.96139
1271.30419	0.96101
1269.25038	0.96060
1267.19658	0.96024
1265.14278	0.95950
1263.08897	0.95848
1261.03517	0.95783
1258.98137	0.95755
1256.92756	0.95728
1254.87376	0.95697
1252.81996	0.95666
1250.76615	0.95627
1248.71235	0.95559
1246.65855	0.95479
1244.60474	0.95424
1242.55094	0.95395
1240.49714	0.95372
1238.44334	0.95329
1236.38953	0.95276
1234.33573	0.95243
1232.28193	0.95209
1230.22812	0.95162
1228.17432	0.95131
1226.12052	0.95121
1224.06671	0.95118
1222.01291	0.95105
1219.95911	0.95061
1217.90530	0.95002
1215.85150	0.94970
1213.79770	0.94962
1211.74389	0.94938
1209.69009	0.94875
1207.63629	0.94795
1205.58248	0.94741
1203.52868	0.94683
1201.47488	0.94574
1199.42107	0.94467
1197.36727	0.94389
1195.31347	0.94283
1193.25966	0.94139
1191.20586	0.94002
1189.15206	0.93890
1187.09825	0.93787
1185.04445	0.93654
1182.99065	0.93467
1180.93685	0.93257
1178.88304	0.93062
1176.82924	0.92872
1174.77544	0.92660
1172.72163	0.92443
1170.66783	0.92246
1168.61403	0.92045
1166.56022	0.91860
1164.50642	0.91710
1162.45262	0.91544
1160.39881	0.91363
1158.34501	0.91198
1156.29121	0.91049
1154.23740	0.90915
1152.18360	0.90775
1150.12980	0.90602
1148.07599	0.90397
1146.02219	0.90206
1143.96839	0.90056
1141.91458	0.89896
1139.86078	0.89696
1137.80698	0.89459
1135.75317	0.89183
1133.69937	0.88917
1131.64557	0.88669
1129.59176	0.88344
1127.53796	0.87916
1125.48416	0.87435
1123.43036	0.86930
1121.37655	0.86408
1119.32275	0.85875
1117.26895	0.85341
1115.21514	0.84838
1113.16134	0.84385
1111.10754	0.83961
1109.05373	0.83540
1106.99993	0.83150
1104.94613	0.82828
1102.89232	0.82555
1100.83852	0.82302
1098.78472	0.82075
1096.73091	0.81919
1094.67711	0.81818
1092.62331	0.81700
1090.56950	0.81560
1088.51570	0.81430
1086.46190	0.81312
1084.40809	0.81189
1082.35429	0.81075
1080.30049	0.80969
1078.24668	0.80817
1076.19288	0.80606
1074.13908	0.80389
1072.08528	0.80163
1070.03147	0.79895
1067.97767	0.79585
1065.92387	0.79238
1063.87006	0.78865
1061.81626	0.78466
1059.76246	0.78034
1057.70865	0.77579
1055.65485	0.77091
1053.60105	0.76532
1051.54724	0.75926
1049.49344	0.75315
1047.43964	0.74693
1045.38583	0.74051
1043.33203	0.73410
1041.27823	0.72805
1039.22442	0.72258
1037.17062	0.71773
1035.11682	0.71359
1033.06301	0.71048
1031.00921	0.70853
1028.95541	0.70759
1026.90160	0.70759
1024.84780	0.70847
1022.79400	0.70970
1020.74019	0.71048
1018.68639	0.71087
1016.63259	0.71134
1014.57879	0.71187
1012.52498	0.71204
1010.47118	0.71166
1008.41738	0.71139
1006.36357	0.71215
1004.30977	0.71426
1002.25597	0.71772
1000.20216	0.72224
998.14836	0.72782
996.09456	0.73465
994.04075	0.74237
991.98695	0.75047
989.93315	0.75835
987.87934	0.76574
985.82554	0.77309
983.77174	0.78067
981.71793	0.78829
979.66413	0.79547
977.61033	0.80213
975.55652	0.80862
973.50272	0.81504
971.44892	0.82147
969.39511	0.82782
967.34131	0.83346
965.28751	0.83808
963.23371	0.84233
961.17990	0.84655
959.12610	0.85008
957.07230	0.85331
955.01849	0.85678
952.96469	0.85975
950.91089	0.86208
948.85708	0.86412
946.80328	0.86596
944.74948	0.86743
942.69567	0.86845
940.64187	0.86925
938.58807	0.87004
936.53426	0.87099
934.48046	0.87187
932.42666	0.87240
930.37285	0.87285
928.31905	0.87315
926.26525	0.87303
924.21144	0.87238
922.15764	0.87105
920.10384	0.86919
918.05003	0.86714
915.99623	0.86518
913.94243	0.86381
911.88862	0.86376
909.83482	0.86559
907.78102	0.86974
905.72722	0.87543
903.67341	0.88077
901.61961	0.88549
899.56581	0.89023
897.51200	0.89451
895.45820	0.89788
893.40440	0.90040
891.35059	0.90229
889.29679	0.90386
887.24299	0.90533
885.18918	0.90661
883.13538	0.90770
881.08158	0.90879
879.02777	0.90982
876.97397	0.91080
874.92017	0.91201
872.86636	0.91376
870.81256	0.91600
868.75876	0.91802
866.70495	0.91942
864.65115	0.92090
862.59735	0.92309
860.54354	0.92520
858.48974	0.92624
856.43594	0.92678
854.38213	0.92770
852.32833	0.92845
850.27453	0.92825
848.22073	0.92788
846.16692	0.92840
844.11312	0.92891
842.05932	0.92871
840.00551	0.92838
837.95171	0.92813
835.89791	0.92816
833.84410	0.92816
831.79030	0.92765
829.73650	0.92696
827.68269	0.92602
825.62889	0.92467
823.57509	0.92330
821.52128	0.92286
819.46748	0.92334
817.41368	0.92327
815.35987	0.92253
813.30607	0.92209
811.25227	0.92155
809.19846	0.91996
807.14466	0.91778
805.09086	0.91571
803.03705	0.91366
800.98325	0.91193
798.92945	0.91125
796.87565	0.91142
794.82184	0.91127
792.76804	0.91031
790.71424	0.90970
788.66043	0.91000
786.60663	0.91003
784.55283	0.90942
782.49902	0.90923
780.44522	0.90958
778.39142	0.90963
776.33761	0.90932
774.28381	0.90930
772.23001	0.90944
770.17620	0.90956
768.12240	0.90959
766.06860	0.90904
764.01479	0.90794
761.96099	0.90642
759.90719	0.90462
757.85338	0.90302
755.79958	0.90182
753.74578	0.90067
751.69197	0.89914
749.63817	0.89802
747.58437	0.89833
745.53056	0.89954
743.47676	0.90031
741.42296	0.90022
739.36916	0.89973
737.31535	0.89852
735.26155	0.89414
733.20775	0.88281
731.15394	0.86756
729.10014	0.86005
727.04634	0.86221
724.99253	0.86260
722.93873	0.85243
720.88493	0.83242
718.83112	0.81607
716.77732	0.81765
714.72352	0.83407
712.66971	0.85225
710.61591	0.86395
708.56211	0.86951
706.50830	0.87146
704.45450	0.87082
702.40070	0.86904
700.34689	0.86743
698.29309	0.86622
696.23929	0.86558
694.18548	0.86493
692.13168	0.86399
690.07788	0.86341
688.02408	0.86343
685.97027	0.86441
683.91647	0.86565
681.86267	0.86572
679.80886	0.86539
677.75506	0.86622
675.70126	0.86748
673.64745	0.86750
671.59365	0.86627
669.53985	0.86548
667.48604	0.86784
665.43224	0.87131
663.37844	0.87296
661.32463	0.87291
659.27083	0.87219
657.21703	0.87188
655.16322	0.87190
653.10942	0.87177
651.05562	0.87146
649.00181	0.87114
646.94801	0.87124
644.89421	0.87194
642.84040	0.87205
640.78660	0.87089
638.73280	0.87009
636.67899	0.87081
634.62519	0.87221
632.57139	0.87269
630.51759	0.87142
628.46378	0.87014
626.40998	0.86998
624.35618	0.86939
622.30237	0.86800
620.24857	0.86651
618.19477	0.86539
616.14096	0.86459
614.08716	0.86334
612.03336	0.86157
609.97955	0.85988
607.92575	0.85794
605.87195	0.85631
603.81814	0.85592
601.76434	0.85514
599.71054	0.85362
597.65673	0.85209
595.60293	0.85037
593.54913	0.84955
591.49532	0.84953
589.44152	0.84847
587.38772	0.84610
585.33391	0.84347
583.28011	0.84176
581.22631	0.84031
579.17250	0.83770
577.11870	0.83437
575.06490	0.83198
573.01110	0.83084
570.95729	0.82913
568.90349	0.82605
566.84969	0.82285
564.79588	0.82022
562.74208	0.81700
560.68828	0.81339
558.63447	0.81113
556.58067	0.80938
554.52687	0.80637
552.47306	0.80265
550.41926	0.79914
548.36546	0.79533
546.31165	0.79135
544.25785	0.78756
542.20405	0.78257
540.15024	0.77633
538.09644	0.77149
536.04264	0.76945
533.98883	0.76896
531.93503	0.76828
529.88123	0.76814
527.82742	0.76908
525.77362	0.77079
523.71982	0.77421
521.66602	0.77725
519.61221	0.77890
517.55841	0.78221
515.50461	0.78685
513.45080	0.78979
511.39700	0.79185
509.34320	0.79447
507.28939	0.79600
505.23559	0.79590
503.18179	0.79699
501.12798	0.80022
499.07418	0.80216
497.02038	0.80209
494.96657	0.80167
492.91277	0.80012
490.85897	0.79735
488.80516	0.79364
486.75136	0.78763
484.69756	0.78144
482.64375	0.77724
480.58995	0.77190
478.53615	0.76439
476.48234	0.75624
474.42854	0.74654
472.37474	0.73352
470.32093	0.72160
468.26713	0.71587
466.21333	0.71586
464.15953	0.71894
462.10572	0.72336
460.05192	0.73063
457.99812	0.73997
455.94431	0.74501
453.89051	0.74585
451.83671	0.74840
449.78290	0.75184
447.72910	0.75367
445.67530	0.75589
443.62149	0.75773
441.56769	0.75749
439.51389	0.75721
437.46008	0.75762
435.40628	0.75575
433.35248	0.74938
431.29867	0.74212
429.24487	0.73951
427.19107	0.74272
425.13726	0.75025
423.08346	0.75798
421.02966	0.76250
418.97585	0.76842
416.92205	0.77478
414.86825	0.77591
412.81445	0.77521
410.76064	0.77799
408.70684	0.78502
406.65304	0.79123
404.59923	0.79604
402.54543	0.80347
400.49163	0.81098
398.43782	0.81026
