3996.71440	0.97687
3994.66059	0.97684
3992.60678	0.97679
3990.55297	0.97670
3988.49916	0.97661
3986.44535	0.97675
3984.39154	0.97706
3982.33773	0.97712
3980.28391	0.97669
3978.23010	0.97628
3976.17629	0.97626
3974.12248	0.97653
3972.06867	0.97678
3970.01486	0.97670
3967.96105	0.97662
3965.90724	0.97682
3963.85343	0.97707
3961.79962	0.97708
3959.74581	0.97689
3957.69200	0.97672
3955.63819	0.97661
3953.58438	0.97659
3951.53057	0.97668
3949.47676	0.97666
3947.42295	0.97635
3945.36914	0.97614
3943.31533	0.97640
3941.26152	0.97680
3939.20771	0.97689
3937.15390	0.97665
3935.10009	0.97636
3933.04628	0.97625
3930.99247	0.97652
3928.93866	0.97692
3926.88485	0.97693
3924.83104	0.97676
3922.77723	0.97671
3920.72342	0.97659
3918.66961	0.97635
3916.61580	0.97604
3914.56199	0.97579
3912.50818	0.97585
3910.45437	0.97619
3908.40056	0.97659
3906.34675	0.97683
3904.29294	0.97679
3902.23913	0.97692
3900.18532	0.97716
3898.13151	0.97701
3896.07770	0.97689
3894.02389	0.97686
3891.97008	0.97665
3889.91627	0.97659
3887.86246	0.97659
3885.80865	0.97641
3883.75484	0.97657
3881.70103	0.97695
3879.64722	0.97674
3877.59341	0.97625
3875.53960	0.97614
3873.48579	0.97634
3871.43198	0.97642
3869.37817	0.97616
3867.32436	0.97611
3865.27055	0.97624
3863.21674	0.97631
3861.16293	0.97660
3859.10912	0.97712
3857.05531	0.97748
3855.00150	0.97718
3852.94769	0.97603
3850.89388	0.97549
3848.84007	0.97568
3846.78626	0.97601
3844.73245	0.97631
3842.67864	0.97644
3840.62483	0.97626
3838.57102	0.97619
3836.51721	0.97671
3834.46340	0.97714
3832.40959	0.97706
3830.35578	0.97688
3828.30197	0.97710
3826.24816	0.97763
3824.19435	0.97805
3822.14054	0.97814
3820.08673	0.97793
3818.03292	0.97774
3815.97911	0.97745
3813.92530	0.97707
3811.87149	0.97700
3809.81768	0.97726
3807.76387	0.97744
3805.71006	0.97723
3803.65625	0.97707
3801.60244	0.97701
3799.54863	0.97687
3797.49482	0.97693
3795.44101	0.97706
3793.38720	0.97707
3791.33339	0.97717
3789.27958	0.97753
3787.22577	0.97792
3785.17196	0.97775
3783.11815	0.97716
3781.06434	0.97696
3779.01053	0.97693
3776.95672	0.97703
3774.90291	0.97749
3772.84910	0.97759
3770.79529	0.97702
3768.74148	0.97665
3766.68767	0.97693
3764.63386	0.97734
3762.58005	0.97767
3760.52624	0.97768
3758.47243	0.97720
3756.41862	0.97696
3754.36481	0.97734
3752.31100	0.97767
3750.25719	0.97761
3748.20338	0.97770
3746.14957	0.97782
3744.09576	0.97747
3742.04195	0.97713
3739.98814	0.97720
3737.93433	0.97724
3735.88052	0.97744
3733.82671	0.97825
3731.77290	0.97879
3729.71909	0.97874
3727.66528	0.97866
3725.61147	0.97851
3723.55766	0.97788
3721.50385	0.97723
3719.45004	0.97717
3717.39623	0.97741
3715.34242	0.97749
3713.28861	0.97725
3711.23480	0.97673
3709.18099	0.97635
3707.12718	0.97625
3705.07337	0.97648
3703.01956	0.97689
3700.96575	0.97708
3698.91194	0.97693
3696.85813	0.97692
3694.80432	0.97734
3692.75051	0.97778
3690.69670	0.97791
3688.64289	0.97751
3686.58907	0.97682
3684.53526	0.97674
3682.48145	0.97703
3680.42764	0.97702
3678.37383	0.97679
3676.32002	0.97657
3674.26621	0.97658
3672.21240	0.97688
3670.15859	0.97695
3668.10478	0.97661
3666.05097	0.97650
3663.99716	0.97667
3661.94335	0.97665
3659.88954	0.97637
3657.83573	0.97625
3655.78192	0.97635
3653.72811	0.97633
3651.67430	0.97619
3649.62049	0.97589
3647.56668	0.97555
3645.51287	0.97537
3643.45906	0.97508
3641.40525	0.97463
3639.35144	0.97429
3637.29763	0.97424
3635.24382	0.97432
3633.19001	0.97456
3631.13620	0.97504
3629.08239	0.97506
3627.02858	0.97442
3624.97477	0.97398
3622.92096	0.97377
3620.86715	0.97367
3618.81334	0.97352
3616.75953	0.97341
3614.70572	0.97345
3612.65191	0.97335
3610.59810	0.97301
3608.54429	0.97262
3606.49048	0.97238
3604.43667	0.97235
3602.38286	0.97248
3600.32905	0.97259
3598.27524	0.97266
3596.22143	0.97257
3594.16762	0.97226
3592.11381	0.97211
3590.06000	0.97216
3588.00619	0.97209
3585.95238	0.97188
3583.89857	0.97174
3581.84476	0.97165
3579.79095	0.97140
3577.73714	0.97086
3575.68333	0.97053
3573.62952	0.97055
3571.57571	0.97041
3569.52190	0.97005
3567.46809	0.96963
3565.41428	0.96941
3563.36047	0.96958
3561.30666	0.96985
3559.25285	0.96998
3557.19904	0.97000
3555.14523	0.96971
3553.09142	0.96901
3551.03761	0.96842
3548.98380	0.96820
3546.92999	0.96815
3544.87618	0.96797
3542.82237	0.96745
3540.76856	0.96710
3538.71475	0.96718
3536.66094	0.96728
3534.60713	0.96733
3532.55332	0.96743
3530.49951	0.96735
3528.44570	0.96710
3526.39189	0.96680
3524.33808	0.96647
3522.28427	0.96620
3520.23046	0.96620
3518.17665	0.96632
3516.12284	0.96627
3514.06903	0.96617
3512.01522	0.96617
3509.96141	0.96621
3507.90760	0.96625
3505.85379	0.96605
3503.79998	0.96543
3501.74617	0.96480
3499.69236	0.96463
3497.63855	0.96475
3495.58474	0.96470
3493.53093	0.96460
3491.47712	0.96448
3489.42331	0.96425
3487.36950	0.96412
3485.31569	0.96397
3483.26188	0.96355
3481.20807	0.96337
3479.15426	0.96373
3477.10045	0.96397
3475.04664	0.96367
3472.99283	0.96314
3470.93902	0.96270
3468.88521	0.96242
3466.83140	0.96233
3464.77759	0.96227
3462.72378	0.96207
3460.66997	0.96186
3458.61616	0.96184
3456.56235	0.96189
3454.50854	0.96164
3452.45473	0.96113
3450.40092	0.96067
3448.34711	0.96049
3446.29330	0.96059
3444.23949	0.96073
3442.18568	0.96084
3440.13187	0.96087
3438.07806	0.96076
3436.02425	0.96067
3433.97044	0.96070
3431.91663	0.96073
3429.86282	0.96074
3427.80901	0.96063
3425.75520	0.96020
3423.70139	0.95952
3421.64758	0.95923
3419.59377	0.95958
3417.53996	0.95975
3415.48615	0.95944
3413.43234	0.95912
3411.37853	0.95903
3409.32472	0.95910
3407.27091	0.95921
3405.21710	0.95918
3403.16329	0.95889
3401.10948	0.95853
3399.05567	0.95841
3397.00186	0.95841
3394.94805	0.95836
3392.89424	0.95831
3390.84042	0.95823
3388.78661	0.95833
3386.73280	0.95856
3384.67899	0.95845
3382.62518	0.95823
3380.57137	0.95829
3378.51756	0.95829
3376.46375	0.95813
3374.40994	0.95803
3372.35613	0.95797
3370.30232	0.95805
3368.24851	0.95825
3366.19470	0.95816
3364.14089	0.95795
3362.08708	0.95793
3360.03327	0.95793
3357.97946	0.95791
3355.92565	0.95790
3353.87184	0.95789
3351.81803	0.95799
3349.76422	0.95812
3347.71041	0.95814
3345.65660	0.95808
3343.60279	0.95791
3341.54898	0.95782
3339.49517	0.95798
3337.44136	0.95801
3335.38755	0.95777
3333.33374	0.95749
3331.27993	0.95733
3329.22612	0.95749
3327.17231	0.95780
3325.11850	0.95779
3323.06469	0.95756
3321.01088	0.95746
3318.95707	0.95756
3316.90326	0.95761
3314.84945	0.95770
3312.79564	0.95782
3310.74183	0.95753
3308.68802	0.95702
3306.63421	0.95677
3304.58040	0.95687
3302.52659	0.95725
3300.47278	0.95756
3298.41897	0.95750
3296.36516	0.95733
3294.31135	0.95739
3292.25754	0.95769
3290.20373	0.95789
3288.14992	0.95783
3286.09611	0.95768
3284.04230	0.95760
3281.98849	0.95764
3279.93468	0.95770
3277.88087	0.95767
3275.82706	0.95772
3273.77325	0.95792
3271.71944	0.95803
3269.66563	0.95800
3267.61182	0.95805
3265.55801	0.95827
3263.50420	0.95847
3261.45039	0.95844
3259.39658	0.95843
3257.34277	0.95862
3255.28896	0.95880
3253.23515	0.95888
3251.18134	0.95897
3249.12753	0.95916
3247.07372	0.95945
3245.01991	0.95956
3242.96610	0.95944
3240.91229	0.95956
3238.85848	0.96009
3236.80467	0.96055
3234.75086	0.96079
3232.69705	0.96104
3230.64324	0.96135
3228.58943	0.96150
3226.53562	0.96139
3224.48181	0.96118
3222.42800	0.96109
3220.37419	0.96121
3218.32038	0.96137
3216.26657	0.96146
3214.21276	0.96149
3212.15895	0.96140
3210.10514	0.96133
3208.05133	0.96155
3205.99752	0.96194
3203.94371	0.96212
3201.88990	0.96209
3199.83609	0.96221
3197.78228	0.96233
3195.72847	0.96236
3193.67466	0.96251
3191.62085	0.96290
3189.56704	0.96343
3187.51323	0.96361
3185.45942	0.96336
3183.40561	0.96329
3181.35180	0.96347
3179.29799	0.96360
3177.24418	0.96370
3175.19037	0.96392
3173.13656	0.96418
3171.08275	0.96447
3169.02894	0.96466
3166.97513	0.96468
3164.92132	0.96477
3162.86751	0.96503
3160.81370	0.96533
3158.75989	0.96562
3156.70608	0.96587
3154.65227	0.96613
3152.59846	0.96635
3150.54465	0.96630
3148.49084	0.96602
3146.43703	0.96586
3144.38322	0.96603
3142.32941	0.96638
3140.27560	0.96651
3138.22179	0.96629
3136.16798	0.96616
3134.11417	0.96653
3132.06036	0.96707
3130.00655	0.96719
3127.95274	0.96724
3125.89893	0.96752
3123.84512	0.96759
3121.79131	0.96740
3119.73750	0.96749
3117.68369	0.96777
3115.62988	0.96768
3113.57607	0.96754
3111.52226	0.96776
3109.46845	0.96795
3107.41464	0.96790
3105.36083	0.96789
3103.30702	0.96797
3101.25321	0.96805
3099.19940	0.96817
3097.14559	0.96827
3095.09177	0.96825
3093.03796	0.96813
3090.98415	0.96803
3088.93034	0.96803
3086.87653	0.96798
3084.82272	0.96788
3082.76891	0.96789
3080.71510	0.96810
3078.66129	0.96855
3076.60748	0.96893
3074.55367	0.96897
3072.49986	0.96881
3070.44605	0.96874
3068.39224	0.96885
3066.33843	0.96905
3064.28462	0.96934
3062.23081	0.96962
3060.17700	0.96975
3058.12319	0.96984
3056.06938	0.96994
3054.01557	0.96989
3051.96176	0.96968
3049.90795	0.96962
3047.85414	0.96971
3045.80033	0.96972
3043.74652	0.96982
3041.69271	0.96994
3039.63890	0.96990
3037.58509	0.96992
3035.53128	0.96996
3033.47747	0.97006
3031.42366	0.97039
3029.36985	0.97064
3027.31604	0.97057
3025.26223	0.97033
3023.20842	0.97003
3021.15461	0.96984
3019.10080	0.96988
3017.04699	0.97014
3014.99318	0.97052
3012.93937	0.97074
3010.88556	0.97072
3008.83175	0.97066
3006.77794	0.97061
3004.72413	0.97060
3002.67032	0.97066
3000.61651	0.97085
2998.56270	0.97111
2996.50889	0.97110
2994.45508	0.97099
2992.40127	0.97111
2990.34746	0.97108
2988.29365	0.97073
2986.23984	0.97027
2984.18603	0.96990
2982.13222	0.96975
2980.07841	0.96960
2978.02460	0.96911
2975.97079	0.96828
2973.91698	0.96758
2971.86317	0.96730
2969.80936	0.96694
2967.75555	0.96603
2965.70174	0.96478
2963.64793	0.96352
2961.59412	0.96215
2959.54031	0.96078
2957.48650	0.95969
2955.43269	0.95881
2953.37888	0.95798
2951.32507	0.95715
2949.27126	0.95616
2947.21745	0.95450
2945.16364	0.95165
2943.10983	0.94767
2941.05602	0.94272
2939.00221	0.93663
2936.94840	0.92917
2934.89459	0.92043
2932.84078	0.91010
2930.78697	0.89785
2928.73316	0.88386
2926.67935	0.86766
2924.62554	0.84818
2922.57173	0.82526
2920.51792	0.80008
2918.46411	0.77545
2916.41030	0.75693
2914.35649	0.75068
2912.30268	0.75801
2910.24887	0.77410
2908.19506	0.79264
2906.14125	0.80946
2904.08744	0.82296
2902.03363	0.83356
2899.97982	0.84235
2897.92601	0.84995
2895.87220	0.85654
2893.81839	0.86256
2891.76458	0.86868
2889.71077	0.87511
2887.65696	0.88183
2885.60315	0.88862
2883.54934	0.89515
2881.49553	0.90140
2879.44172	0.90764
2877.38791	0.91375
2875.33410	0.91914
2873.28029	0.92346
2871.22648	0.92661
2869.17267	0.92840
2867.11886	0.92884
2865.06505	0.92774
2863.01124	0.92424
2860.95743	0.91761
2858.90362	0.90726
2856.84981	0.89139
2854.79600	0.86731
2852.74219	0.83408
2850.68838	0.79729
2848.63457	0.77141
2846.58076	0.76974
2844.52695	0.79052
2842.47314	0.82035
2840.41933	0.84820
2838.36552	0.87032
2836.31171	0.88688
2834.25790	0.89907
2832.20409	0.90813
2830.15028	0.91513
2828.09647	0.92092
2826.04266	0.92581
2823.98885	0.92970
2821.93504	0.93271
2819.88123	0.93529
2817.82742	0.93767
2815.77361	0.93977
2813.71980	0.94142
2811.66599	0.94283
2809.61218	0.94433
2807.55837	0.94571
2805.50456	0.94668
2803.45075	0.94743
2801.39693	0.94825
2799.34312	0.94918
2797.28931	0.95014
2795.23550	0.95100
2793.18169	0.95188
2791.12788	0.95294
2789.07407	0.95387
2787.02026	0.95436
2784.96645	0.95461
2782.91264	0.95501
2780.85883	0.95552
2778.80502	0.95602
2776.75121	0.95666
2774.69740	0.95734
2772.64359	0.95776
2770.58978	0.95802
2768.53597	0.95829
2766.48216	0.95847
2764.42835	0.95867
2762.37454	0.95899
2760.32073	0.95939
2758.26692	0.95979
2756.21311	0.96004
2754.15930	0.96021
2752.10549	0.96044
2750.05168	0.96062
2747.99787	0.96074
2745.94406	0.96082
2743.89025	0.96075
2741.83644	0.96074
2739.78263	0.96095
2737.72882	0.96127
2735.67501	0.96160
2733.62120	0.96185
2731.56739	0.96202
2729.51358	0.96224
2727.45977	0.96246
2725.40596	0.96255
2723.35215	0.96270
2721.29834	0.96288
2719.24453	0.96285
2717.19072	0.96284
2715.13691	0.96299
2713.08310	0.96313
2711.02929	0.96333
2708.97548	0.96345
2706.92167	0.96339
2704.86786	0.96336
2702.81405	0.96352
2700.76024	0.96372
2698.70643	0.96375
2696.65262	0.96377
2694.59881	0.96393
2692.54500	0.96406
2690.49119	0.96420
2688.43738	0.96440
2686.38357	0.96448
2684.32976	0.96448
2682.27595	0.96460
2680.22214	0.96464
2678.16833	0.96452
2676.11452	0.96444
2674.06071	0.96447
2672.00690	0.96457
2669.95309	0.96463
2667.89928	0.96466
2665.84547	0.96462
2663.79166	0.96444
2661.73785	0.96423
2659.68404	0.96418
2657.63023	0.96432
2655.57642	0.96449
2653.52261	0.96455
2651.46880	0.96450
2649.41499	0.96455
2647.36118	0.96471
2645.30737	0.96476
2643.25356	0.96474
2641.19975	0.96472
2639.14594	0.96469
2637.09213	0.96466
2635.03832	0.96475
2632.98451	0.96496
2630.93070	0.96535
2628.87689	0.96579
2626.82308	0.96595
2624.76927	0.96586
2622.71546	0.96573
2620.66165	0.96569
2618.60784	0.96610
2616.55403	0.96666
2614.50022	0.96672
2612.44641	0.96664
2610.39260	0.96666
2608.33879	0.96666
2606.28498	0.96691
2604.23117	0.96722
2602.17736	0.96732
2600.12355	0.96756
2598.06974	0.96782
2596.01593	0.96779
2593.96212	0.96756
2591.90831	0.96743
2589.85450	0.96760
2587.80069	0.96794
2585.74688	0.96814
2583.69307	0.96814
2581.63926	0.96822
2579.58545	0.96854
2577.53164	0.96882
2575.47783	0.96867
2573.42402	0.96844
2571.37021	0.96870
2569.31640	0.96905
2567.26259	0.96907
2565.20878	0.96894
2563.15497	0.96896
2561.10116	0.96910
2559.04735	0.96914
2556.99354	0.96896
2554.93973	0.96879
2552.88592	0.96904
2550.83211	0.96946
2548.77830	0.96946
2546.72449	0.96934
2544.67068	0.96959
2542.61687	0.96996
2540.56306	0.96989
2538.50925	0.96970
2536.45544	0.96985
2534.40163	0.96998
2532.34782	0.96993
2530.29401	0.97004
2528.24020	0.97031
2526.18639	0.97032
2524.13258	0.97010
2522.07877	0.96994
2520.02496	0.96971
2517.97115	0.96961
2515.91734	0.96988
2513.86353	0.97018
2511.80972	0.97040
2509.75591	0.97072
2507.70210	0.97089
2505.64828	0.97075
2503.59447	0.97048
2501.54066	0.97030
2499.48685	0.97023
2497.43304	0.97014
2495.37923	0.97005
2493.32542	0.97022
2491.27161	0.97074
2489.21780	0.97120
2487.16399	0.97116
2485.11018	0.97085
2483.05637	0.97071
2481.00256	0.97085
2478.94875	0.97112
2476.89494	0.97123
2474.84113	0.97113
2472.78732	0.97112
2470.73351	0.97115
2468.67970	0.97108
2466.62589	0.97086
2464.57208	0.97059
2462.51827	0.97067
2460.46446	0.97104
2458.41065	0.97111
2456.35684	0.97099
2454.30303	0.97106
2452.24922	0.97105
2450.19541	0.97098
2448.14160	0.97126
2446.08779	0.97182
2444.03398	0.97209
2441.98017	0.97167
2439.92636	0.97112
2437.87255	0.97104
2435.81874	0.97133
2433.76493	0.97177
2431.71112	0.97193
2429.65731	0.97179
2427.60350	0.97168
2425.54969	0.97158
2423.49588	0.97148
2421.44207	0.97161
2419.38826	0.97192
2417.33445	0.97198
2415.28064	0.97176
2413.22683	0.97148
2411.17302	0.97119
2409.11921	0.97115
2407.06540	0.97152
2405.01159	0.97194
2402.95778	0.97199
2400.90397	0.97181
2398.85016	0.97175
2396.79635	0.97160
2394.74254	0.97138
2392.68873	0.97146
2390.63492	0.97168
2388.58111	0.97168
2386.52730	0.97156
2384.47349	0.97148
2382.41968	0.97152
2380.36587	0.97175
2378.31206	0.97184
2376.25825	0.97160
2374.20444	0.97131
2372.15063	0.97110
2370.09682	0.97097
2368.04301	0.97100
2365.98920	0.97129
2363.93539	0.97186
2361.88158	0.97235
2359.82777	0.97258
2357.77396	0.97265
2355.72015	0.97241
2353.66634	0.97167
2351.61253	0.97070
2349.55872	0.97009
2347.50491	0.97007
2345.45110	0.97029
2343.39729	0.97043
2341.34348	0.97063
2339.28967	0.97075
2337.23586	0.97039
2335.18205	0.96958
2333.12824	0.96919
2331.07443	0.96968
2329.02062	0.97016
2326.96681	0.96983
2324.91300	0.96928
2322.85919	0.96903
2320.80538	0.96898
2318.75157	0.96955
2316.69776	0.97048
2314.64395	0.97083
2312.59014	0.97086
2310.53633	0.97110
2308.48252	0.97113
2306.42871	0.97079
2304.37490	0.97050
2302.32109	0.97042
2300.26728	0.97052
2298.21347	0.97089
2296.15966	0.97118
2294.10585	0.97105
2292.05204	0.97085
2289.99823	0.97082
2287.94442	0.97064
2285.89061	0.97013
2283.83680	0.96997
2281.78299	0.97048
2279.72918	0.97086
2277.67537	0.97070
2275.62156	0.97040
2273.56775	0.97048
2271.51394	0.97086
2269.46013	0.97102
2267.40632	0.97095
2265.35251	0.97109
2263.29870	0.97170
2261.24489	0.97205
2259.19108	0.97200
2257.13727	0.97244
2255.08346	0.97260
2253.02965	0.97185
2250.97584	0.97163
2248.92203	0.97229
2246.86822	0.97242
2244.81441	0.97196
2242.76060	0.97154
2240.70679	0.97095
2238.65298	0.97044
2236.59917	0.97057
2234.54536	0.97122
2232.49155	0.97206
2230.43774	0.97297
2228.38393	0.97296
2226.33012	0.97182
2224.27631	0.97136
2222.22250	0.97194
2220.16869	0.97249
2218.11488	0.97245
2216.06107	0.97217
2214.00726	0.97229
2211.95344	0.97264
2209.89963	0.97260
2207.84582	0.97247
2205.79201	0.97287
2203.73820	0.97354
2201.68439	0.97345
2199.63058	0.97269
2197.57677	0.97241
2195.52296	0.97273
2193.46915	0.97283
2191.41534	0.97248
2189.36153	0.97199
2187.30772	0.97141
2185.25391	0.97132
2183.20010	0.97209
2181.14629	0.97294
2179.09248	0.97294
2177.03867	0.97176
2174.98486	0.97075
2172.93105	0.97106
2170.87724	0.97171
2168.82343	0.97168
2166.76962	0.97146
2164.71581	0.97166
2162.66200	0.97159
2160.60819	0.97170
2158.55438	0.97340
2156.50057	0.97475
2154.44676	0.97470
2152.39295	0.97442
2150.33914	0.97434
2148.28533	0.97470
2146.23152	0.97490
2144.17771	0.97400
2142.12390	0.97300
2140.07009	0.97310
2138.01628	0.97343
2135.96247	0.97382
2133.90866	0.97448
2131.85485	0.97461
2129.80104	0.97430
2127.74723	0.97383
2125.69342	0.97325
2123.63961	0.97270
2121.58580	0.97251
2119.53199	0.97270
2117.47818	0.97281
2115.42437	0.97272
2113.37056	0.97269
2111.31675	0.97286
2109.26294	0.97283
2107.20913	0.97278
2105.15532	0.97292
2103.10151	0.97287
2101.04770	0.97272
2098.99389	0.97240
2096.94008	0.97207
2094.88627	0.97238
2092.83246	0.97367
2090.77865	0.97465
2088.72484	0.97409
2086.67103	0.97290
2084.61722	0.97234
2082.56341	0.97268
2080.50960	0.97315
2078.45579	0.97345
2076.40198	0.97370
2074.34817	0.97375
2072.29436	0.97370
2070.24055	0.97324
2068.18674	0.97270
2066.13293	0.97248
2064.07912	0.97215
2062.02531	0.97201
2059.97150	0.97236
2057.91769	0.97299
2055.86388	0.97376
2053.81007	0.97398
2051.75626	0.97359
2049.70245	0.97348
2047.64864	0.97296
2045.59483	0.97186
2043.54102	0.97266
2041.48721	0.97452
2039.43340	0.97397
2037.37959	0.97254
2035.32578	0.97313
2033.27197	0.97443
2031.21816	0.97510
2029.16435	0.97532
2027.11054	0.97555
2025.05673	0.97629
2023.00292	0.97662
2020.94911	0.97634
2018.89530	0.97653
2016.84149	0.97698
2014.78768	0.97645
2012.73387	0.97440
2010.68006	0.97252
2008.62625	0.97251
2006.57244	0.97346
2004.51863	0.97379
2002.46482	0.97321
2000.41101	0.97327
1998.35720	0.97463
1996.30339	0.97488
1994.24958	0.97352
1992.19577	0.97283
1990.14196	0.97265
1988.08815	0.97200
1986.03434	0.97167
1983.98053	0.97182
1981.92672	0.97139
1979.87291	0.97036
1977.81910	0.97093
1975.76529	0.97328
1973.71148	0.97407
1971.65767	0.97254
1969.60386	0.97165
1967.55005	0.97285
1965.49624	0.97407
1963.44243	0.97446
1961.38862	0.97516
1959.33481	0.97588
1957.28100	0.97564
1955.22719	0.97451
1953.17338	0.97405
1951.11957	0.97486
1949.06576	0.97453
1947.01195	0.97261
1944.95814	0.97220
1942.90433	0.97378
1940.85052	0.97469
1938.79671	0.97448
1936.74290	0.97373
1934.68909	0.97278
1932.63528	0.97245
1930.58147	0.97279
1928.52766	0.97339
1926.47385	0.97365
1924.42004	0.97360
1922.36623	0.97353
1920.31242	0.97327
1918.25861	0.97299
1916.20479	0.97297
1914.15098	0.97314
1912.09717	0.97329
1910.04336	0.97306
1907.98955	0.97270
1905.93574	0.97287
1903.88193	0.97317
1901.82812	0.97306
1899.77431	0.97285
1897.72050	0.97281
1895.66669	0.97270
1893.61288	0.97270
1891.55907	0.97308
1889.50526	0.97335
1887.45145	0.97320
1885.39764	0.97279
1883.34383	0.97222
1881.29002	0.97204
1879.23621	0.97243
1877.18240	0.97287
1875.12859	0.97317
1873.07478	0.97366
1871.02097	0.97409
1868.96716	0.97382
1866.91335	0.97318
1864.85954	0.97287
1862.80573	0.97290
1860.75192	0.97318
1858.69811	0.97323
1856.64430	0.97308
1854.59049	0.97312
1852.53668	0.97316
1850.48287	0.97295
1848.42906	0.97274
1846.37525	0.97281
1844.32144	0.97273
1842.26763	0.97220
1840.21382	0.97190
1838.16001	0.97213
1836.10620	0.97270
1834.05239	0.97316
1831.99858	0.97313
1829.94477	0.97275
1827.89096	0.97236
1825.83715	0.97210
1823.78334	0.97218
1821.72953	0.97242
1819.67572	0.97245
1817.62191	0.97245
1815.56810	0.97249
1813.51429	0.97241
1811.46048	0.97230
1809.40667	0.97232
1807.35286	0.97238
1805.29905	0.97225
1803.24524	0.97196
1801.19143	0.97178
1799.13762	0.97167
1797.08381	0.97146
1795.03000	0.97132
1792.97619	0.97113
1790.92238	0.97071
1788.86857	0.97051
1786.81476	0.97049
1784.76095	0.97030
1782.70714	0.97021
1780.65333	0.97038
1778.59952	0.97043
1776.54571	0.97026
1774.49190	0.97002
1772.43809	0.96965
1770.38428	0.96922
1768.33047	0.96889
1766.27666	0.96872
1764.22285	0.96863
1762.16904	0.96833
1760.11523	0.96768
1758.06142	0.96679
1756.00761	0.96564
1753.95380	0.96445
1751.89999	0.96315
1749.84618	0.96143
1747.79237	0.95996
1745.73856	0.95927
1743.68475	0.95876
1741.63094	0.95809
1739.57713	0.95759
1737.52332	0.95763
1735.46951	0.95815
1733.41570	0.95882
1731.36189	0.95920
1729.30808	0.95909
1727.25427	0.95842
1725.20046	0.95751
1723.14665	0.95667
1721.09284	0.95599
1719.03903	0.95515
1716.98522	0.95398
1714.93141	0.95340
1712.87760	0.95342
1710.82379	0.95342
1708.76998	0.95368
1706.71617	0.95438
1704.66236	0.95484
1702.60855	0.95477
1700.55474	0.95466
1698.50093	0.95476
1696.44712	0.95465
1694.39331	0.95440
1692.33950	0.95431
1690.28569	0.95400
1688.23188	0.95332
1686.17807	0.95253
1684.12426	0.95142
1682.07045	0.95030
1680.01664	0.94958
1677.96283	0.94904
1675.90902	0.94843
1673.85521	0.94752
1671.80140	0.94644
1669.74759	0.94507
1667.69378	0.94390
1665.63997	0.94313
1663.58616	0.94219
1661.53235	0.94133
1659.47854	0.94097
1657.42473	0.94071
1655.37092	0.94013
1653.31711	0.93906
1651.26330	0.93866
1649.20949	0.93903
1647.15568	0.93936
1645.10187	0.93936
1643.04806	0.93928
1640.99425	0.93938
1638.94044	0.93961
1636.88663	0.93973
1634.83282	0.93967
1632.77901	0.93974
1630.72520	0.93987
1628.67139	0.94011
1626.61758	0.94057
1624.56377	0.94113
1622.50996	0.94184
1620.45614	0.94260
1618.40233	0.94341
1616.34852	0.94442
1614.29471	0.94545
1612.24090	0.94612
1610.18709	0.94640
1608.13328	0.94662
1606.07947	0.94705
1604.02566	0.94760
1601.97185	0.94809
1599.91804	0.94845
1597.86423	0.94869
1595.81042	0.94880
1593.75661	0.94886
1591.70280	0.94896
1589.64899	0.94920
1587.59518	0.94953
1585.54137	0.94970
1583.48756	0.94972
1581.43375	0.94980
1579.37994	0.94991
1577.32613	0.94983
1575.27232	0.94969
1573.21851	0.94980
1571.16470	0.94968
1569.11089	0.94932
1567.05708	0.94932
1565.00327	0.94954
1562.94946	0.94958
1560.89565	0.94941
1558.84184	0.94899
1556.78803	0.94841
1554.73422	0.94783
1552.68041	0.94745
1550.62660	0.94750
1548.57279	0.94760
1546.51898	0.94760
1544.46517	0.94767
1542.41136	0.94794
1540.35755	0.94846
1538.30374	0.94910
1536.24993	0.94960
1534.19612	0.95005
1532.14231	0.95043
1530.08850	0.95090
1528.03469	0.95160
1525.98088	0.95236
1523.92707	0.95302
1521.87326	0.95359
1519.81945	0.95400
1517.76564	0.95420
1515.71183	0.95461
1513.65802	0.95518
1511.60421	0.95574
1509.55040	0.95625
1507.49659	0.95662
1505.44278	0.95711
1503.38897	0.95776
1501.33516	0.95828
1499.28135	0.95854
1497.22754	0.95874
1495.17373	0.95905
1493.11992	0.95924
1491.06611	0.95929
1489.01230	0.95936
1486.95849	0.95933
1484.90468	0.95902
1482.85087	0.95836
1480.79706	0.95703
1478.74325	0.95308
1476.68944	0.94035
1474.63563	0.91335
1472.58182	0.88575
1470.52801	0.88218
1468.47420	0.89134
1466.42039	0.89547
1464.36658	0.89025
1462.31277	0.88677
1460.25896	0.89432
1458.20515	0.90912
1456.15134	0.92158
1454.09753	0.92703
1452.04372	0.93021
1449.98991	0.93289
1447.93610	0.93495
1445.88229	0.93623
1443.82848	0.93699
1441.77467	0.93764
1439.72086	0.93827
1437.66705	0.93900
1435.61324	0.93991
1433.55943	0.94063
1431.50562	0.94121
1429.45181	0.94187
1427.39800	0.94258
1425.34419	0.94321
1423.29038	0.94366
1421.23657	0.94388
1419.18276	0.94371
1417.12895	0.94316
1415.07514	0.94285
1413.02133	0.94296
1410.96752	0.94313
1408.91371	0.94320
1406.85990	0.94338
1404.80609	0.94382
1402.75228	0.94435
1400.69847	0.94472
1398.64466	0.94488
1396.59085	0.94511
1394.53704	0.94554
1392.48323	0.94598
1390.42942	0.94615
1388.37561	0.94602
1386.32180	0.94572
1384.26799	0.94535
1382.21418	0.94485
1380.16037	0.94429
1378.10656	0.94387
1376.05275	0.94362
1373.99894	0.94353
1371.94513	0.94371
1369.89132	0.94403
1367.83751	0.94424
1365.78370	0.94437
1363.72989	0.94461
1361.67608	0.94514
1359.62227	0.94593
1357.56846	0.94664
1355.51465	0.94695
1353.46084	0.94699
1351.40703	0.94720
1349.35322	0.94756
1347.29941	0.94776
1345.24560	0.94789
1343.19179	0.94812
1341.13798	0.94846
1339.08417	0.94871
1337.03036	0.94887
1334.97655	0.94913
1332.92274	0.94941
1330.86893	0.94957
1328.81512	0.94960
1326.76130	0.94952
1324.70749	0.94936
1322.65368	0.94915
1320.59987	0.94889
1318.54606	0.94857
1316.49225	0.94818
1314.43844	0.94789
1312.38463	0.94782
1310.33082	0.94786
1308.27701	0.94793
1306.22320	0.94797
1304.16939	0.94796
1302.11558	0.94798
1300.06177	0.94779
1298.00796	0.94744
1295.95415	0.94742
1293.90034	0.94773
1291.84653	0.94795
1289.79272	0.94786
1287.73891	0.94763
1285.68510	0.94750
1283.63129	0.94740
1281.57748	0.94715
1279.52367	0.94669
1277.46986	0.94617
1275.41605	0.94594
1273.36224	0.94587
1271.30843	0.94548
1269.25462	0.94486
1267.20081	0.94444
1265.14700	0.94413
1263.09319	0.94398
1261.03938	0.94420
1258.98557	0.94437
1256.93176	0.94414
1254.87795	0.94383
1252.82414	0.94360
1250.77033	0.94328
1248.71652	0.94281
1246.66271	0.94242
1244.60890	0.94230
1242.55509	0.94232
1240.50128	0.94232
1238.44747	0.94232
1236.39366	0.94238
1234.33985	0.94231
1232.28604	0.94214
1230.23223	0.94201
1228.17842	0.94183
1226.12461	0.94158
1224.07080	0.94152
1222.01699	0.94183
1219.96318	0.94215
1217.90937	0.94211
1215.85556	0.94201
1213.80175	0.94207
1211.74794	0.94208
1209.69413	0.94186
1207.64032	0.94156
1205.58651	0.94140
1203.53270	0.94146
1201.47889	0.94157
1199.42508	0.94157
1197.37127	0.94140
1195.31746	0.94115
1193.26365	0.94096
1191.20984	0.94071
1189.15603	0.94030
1187.10222	0.93996
1185.04841	0.93960
1182.99460	0.93894
1180.94079	0.93810
1178.88698	0.93731
1176.83317	0.93656
1174.77936	0.93582
1172.72555	0.93493
1170.67174	0.93389
1168.61793	0.93296
1166.56412	0.93221
1164.51031	0.93143
1162.45650	0.93058
1160.40269	0.93005
1158.34888	0.92981
1156.29507	0.92947
1154.24126	0.92900
1152.18745	0.92849
1150.13364	0.92799
1148.07983	0.92770
1146.02602	0.92749
1143.97221	0.92721
1141.91840	0.92701
1139.86459	0.92688
1137.81078	0.92653
1135.75697	0.92585
1133.70316	0.92502
1131.64935	0.92409
1129.59554	0.92294
1127.54173	0.92159
1125.48792	0.92032
1123.43411	0.91907
1121.38030	0.91756
1119.32649	0.91613
1117.27268	0.91500
1115.21887	0.91394
1113.16506	0.91291
1111.11125	0.91207
1109.05744	0.91138
1107.00363	0.91058
1104.94982	0.90974
1102.89601	0.90902
1100.84220	0.90830
1098.78839	0.90750
1096.73458	0.90668
1094.68077	0.90576
1092.62696	0.90497
1090.57315	0.90443
1088.51934	0.90371
1086.46553	0.90276
1084.41172	0.90209
1082.35791	0.90163
1080.30410	0.90091
1078.25029	0.90000
1076.19648	0.89918
1074.14267	0.89856
1072.08886	0.89813
1070.03505	0.89767
1067.98124	0.89716
1065.92743	0.89672
1063.87362	0.89617
1061.81981	0.89566
1059.76600	0.89514
1057.71219	0.89419
1055.65838	0.89304
1053.60457	0.89210
1051.55076	0.89116
1049.49695	0.89008
1047.44314	0.88892
1045.38933	0.88774
1043.33552	0.88668
1041.28171	0.88583
1039.22790	0.88544
1037.17409	0.88542
1035.12028	0.88533
1033.06647	0.88520
1031.01265	0.88528
1028.95884	0.88558
1026.90503	0.88604
1024.85122	0.88667
1022.79741	0.88717
1020.74360	0.88754
1018.68979	0.88836
1016.63598	0.88963
1014.58217	0.89089
1012.52836	0.89208
1010.47455	0.89326
1008.42074	0.89457
1006.36693	0.89610
1004.31312	0.89768
1002.25931	0.89913
1000.20550	0.90050
998.15169	0.90195
996.09788	0.90342
994.04407	0.90485
991.99026	0.90660
989.93645	0.90863
987.88264	0.91051
985.82883	0.91220
983.77502	0.91386
981.72121	0.91551
979.66740	0.91721
977.61359	0.91876
975.55978	0.92006
973.50597	0.92127
971.45216	0.92244
969.39835	0.92366
967.34454	0.92478
965.29073	0.92577
963.23692	0.92675
961.18311	0.92757
959.12930	0.92829
957.07549	0.92909
955.02168	0.92995
952.96787	0.93081
950.91406	0.93169
948.86025	0.93241
946.80644	0.93292
944.75263	0.93336
942.69882	0.93361
940.64501	0.93371
938.59120	0.93401
936.53739	0.93476
934.48358	0.93562
932.42977	0.93605
930.37596	0.93595
928.32215	0.93570
926.26834	0.93553
924.21453	0.93526
922.16072	0.93488
920.10691	0.93450
918.05310	0.93437
915.99929	0.93457
913.94548	0.93474
911.89167	0.93490
909.83786	0.93510
907.78405	0.93536
905.73024	0.93589
903.67643	0.93653
901.62262	0.93710
899.56881	0.93773
897.51500	0.93837
895.46119	0.93881
893.40738	0.93899
891.35357	0.93915
889.29976	0.93933
887.24595	0.93930
885.19214	0.93921
883.13833	0.93938
881.08452	0.93997
879.03071	0.94048
876.97690	0.94015
874.92309	0.93956
872.86928	0.93978
870.81547	0.94045
868.76166	0.94093
866.70785	0.94120
864.65404	0.94108
862.60023	0.94077
860.54642	0.94058
858.49261	0.94025
856.43880	0.94009
854.38499	0.94046
852.33118	0.94072
850.27737	0.94070
848.22356	0.94062
846.16975	0.94047
844.11594	0.94054
842.06213	0.94099
840.00832	0.94125
837.95451	0.94082
835.90070	0.94030
833.84689	0.94006
831.79308	0.93985
829.73927	0.93965
827.68546	0.93918
825.63165	0.93864
823.57784	0.93838
821.52403	0.93801
819.47022	0.93752
817.41641	0.93710
815.36260	0.93674
813.30879	0.93673
811.25498	0.93687
809.20117	0.93663
807.14736	0.93584
805.09355	0.93492
803.03974	0.93436
800.98593	0.93384
798.93212	0.93330
796.87831	0.93331
794.82450	0.93337
792.77069	0.93310
790.71688	0.93319
788.66307	0.93375
786.60926	0.93410
784.55545	0.93381
782.50164	0.93288
780.44783	0.93181
778.39402	0.93131
776.34021	0.93159
774.28640	0.93211
772.23259	0.93229
770.17878	0.93223
768.12497	0.93214
766.07116	0.93198
764.01735	0.93183
761.96354	0.93160
759.90973	0.93126
757.85592	0.93128
755.80211	0.93153
753.74830	0.93138
751.69449	0.93111
749.64068	0.93095
747.58687	0.93070
745.53306	0.93026
743.47925	0.92960
741.42544	0.92893
739.37163	0.92821
737.31781	0.92644
735.26400	0.92076
733.21019	0.90624
731.15638	0.88747
729.10257	0.88067
727.04876	0.88746
724.99495	0.89219
722.94114	0.88364
720.88733	0.86140
718.83352	0.84023
716.77971	0.83773
714.72590	0.85277
712.67209	0.87229
710.61828	0.88650
708.56447	0.89431
706.51066	0.89865
704.45685	0.90162
702.40304	0.90394
700.34923	0.90551
698.29542	0.90637
696.24161	0.90680
694.18780	0.90710
692.13399	0.90746
690.08018	0.90728
688.02637	0.90667
685.97256	0.90717
683.91875	0.90817
681.86494	0.90793
679.81113	0.90731
677.75732	0.90716
675.70351	0.90711
673.64970	0.90727
671.59589	0.90747
669.54208	0.90721
667.48827	0.90655
665.43446	0.90654
663.38065	0.90724
661.32684	0.90785
659.27303	0.90746
657.21922	0.90645
655.16541	0.90581
653.11160	0.90598
651.05779	0.90651
649.00398	0.90624
646.95017	0.90549
644.89636	0.90529
642.84255	0.90538
640.78874	0.90540
638.73493	0.90490
636.68112	0.90409
634.62731	0.90398
632.57350	0.90437
630.51969	0.90407
628.46588	0.90304
626.41207	0.90242
624.35826	0.90228
622.30445	0.90213
620.25064	0.90202
618.19683	0.90167
616.14302	0.90100
614.08921	0.90068
612.03540	0.90117
609.98159	0.90111
607.92778	0.89934
605.87397	0.89732
603.82016	0.89653
601.76635	0.89669
599.71254	0.89733
597.65873	0.89838
595.60492	0.89891
593.55111	0.89823
591.49730	0.89673
589.44349	0.89512
587.38968	0.89462
585.33587	0.89493
583.28206	0.89452
581.22825	0.89375
579.17444	0.89324
577.12063	0.89254
575.06682	0.89173
573.01301	0.89104
570.95920	0.89055
568.90539	0.89009
566.85158	0.88956
564.79777	0.88896
562.74396	0.88825
560.69015	0.88791
558.63634	0.88766
556.58253	0.88693
554.52872	0.88691
552.47491	0.88778
550.42110	0.88806
548.36729	0.88731
546.31348	0.88595
544.25967	0.88489
542.20586	0.88458
540.15205	0.88353
538.09824	0.88158
536.04443	0.88069
533.99062	0.88121
531.93681	0.88168
529.88300	0.88109
527.82919	0.88029
525.77538	0.88101
523.72157	0.88239
521.66776	0.88244
519.61395	0.88204
517.56014	0.88312
515.50633	0.88461
513.45252	0.88489
511.39871	0.88473
509.34490	0.88491
507.29109	0.88491
505.23728	0.88461
503.18347	0.88491
501.12966	0.88474
499.07585	0.88328
497.02204	0.88311
494.96823	0.88556
492.91442	0.88831
490.86061	0.88757
488.80680	0.88358
486.75299	0.88050
484.69918	0.87931
482.64537	0.87877
480.59156	0.87793
478.53775	0.87464
476.48394	0.86853
474.43013	0.86334
472.37632	0.86202
470.32251	0.86236
468.26870	0.86213
466.21489	0.86229
464.16108	0.86350
462.10727	0.86563
460.05346	0.86760
457.99965	0.86845
455.94584	0.86976
453.89203	0.87291
451.83822	0.87601
449.78441	0.87750
447.73060	0.87886
445.67679	0.87958
443.62298	0.87819
441.56916	0.87779
439.51535	0.87849
437.46154	0.87703
435.40773	0.87459
433.35392	0.87332
431.30011	0.87343
429.24630	0.87361
427.19249	0.87321
425.13868	0.87408
423.08487	0.87560
421.03106	0.87616
418.97725	0.87792
416.92344	0.87958
414.86963	0.87942
412.81582	0.88074
410.76201	0.88391
408.70820	0.88627
406.65439	0.88853
404.60058	0.89298
402.54677	0.89669
400.49296	0.89529
398.43915	0.89079
