3996.71440	0.99056
3994.66059	0.99063
3992.60678	0.99076
3990.55297	0.99084
3988.49916	0.99078
3986.44535	0.99100
3984.39154	0.99130
3982.33773	0.99109
3980.28391	0.99080
3978.23010	0.99071
3976.17629	0.99074
3974.12248	0.99114
3972.06867	0.99144
3970.01486	0.99135
3967.96105	0.99132
3965.90724	0.99153
3963.85343	0.99161
3961.79962	0.99112
3959.74581	0.99031
3957.69200	0.99000
3955.63819	0.99042
3953.58438	0.99081
3951.53057	0.99068
3949.47676	0.99049
3947.42295	0.99062
3945.36914	0.99088
3943.31533	0.99088
3941.26152	0.99069
3939.20771	0.99071
3937.15390	0.99096
3935.10009	0.99105
3933.04628	0.99087
3930.99247	0.99078
3928.93866	0.99076
3926.88485	0.99067
3924.83104	0.99068
3922.77723	0.99059
3920.72342	0.99026
3918.66961	0.99023
3916.61580	0.99070
3914.56199	0.99110
3912.50818	0.99126
3910.45437	0.99122
3908.40056	0.99079
3906.34675	0.99033
3904.29294	0.99047
3902.23913	0.99088
3900.18532	0.99080
3898.13151	0.99045
3896.07770	0.99044
3894.02389	0.99082
3891.97008	0.99131
3889.91627	0.99142
3887.86246	0.99112
3885.80865	0.99081
3883.75484	0.99051
3881.70103	0.99039
3879.64722	0.99061
3877.59341	0.99060
3875.53960	0.99031
3873.48579	0.99038
3871.43198	0.99077
3869.37817	0.99087
3867.32436	0.99067
3865.27055	0.99041
3863.21674	0.99036
3861.16293	0.99063
3859.10912	0.99101
3857.05531	0.99128
3855.00150	0.99111
3852.94769	0.99063
3850.89388	0.99076
3848.84007	0.99107
3846.78626	0.99112
3844.73245	0.99095
3842.67864	0.99081
3840.62483	0.99101
3838.57102	0.99143
3836.51721	0.99136
3834.46340	0.99068
3832.40959	0.99035
3830.35578	0.99092
3828.30197	0.99158
3826.24816	0.99173
3824.19435	0.99169
3822.14054	0.99174
3820.08673	0.99181
3818.03292	0.99173
3815.97911	0.99175
3813.92530	0.99194
3811.87149	0.99195
3809.81768	0.99181
3807.76387	0.99178
3805.71006	0.99166
3803.65625	0.99120
3801.60244	0.99089
3799.54863	0.99105
3797.49482	0.99121
3795.44101	0.99130
3793.38720	0.99127
3791.33339	0.99110
3789.27958	0.99106
3787.22577	0.99116
3785.17196	0.99114
3783.11815	0.99111
3781.06434	0.99122
3779.01053	0.99134
3776.95672	0.99127
3774.90291	0.99125
3772.84910	0.99153
3770.79529	0.99176
3768.74148	0.99151
3766.68767	0.99126
3764.63386	0.99122
3762.58005	0.99101
3760.52624	0.99074
3758.47243	0.99077
3756.41862	0.99103
3754.36481	0.99127
3752.31100	0.99143
3750.25719	0.99181
3748.20338	0.99227
3746.14957	0.99251
3744.09576	0.99256
3742.04195	0.99229
3739.98814	0.99205
3737.93433	0.99177
3735.88052	0.99136
3733.82671	0.99145
3731.77290	0.99193
3729.71909	0.99211
3727.66528	0.99201
3725.61147	0.99182
3723.55766	0.99174
3721.50385	0.99181
3719.45004	0.99162
3717.39623	0.99133
3715.34242	0.99132
3713.28861	0.99147
3711.23480	0.99163
3709.18099	0.99159
3707.12718	0.99127
3705.07337	0.99116
3703.01956	0.99150
3700.96575	0.99194
3698.91194	0.99213
3696.85813	0.99221
3694.80432	0.99213
3692.75051	0.99164
3690.69670	0.99114
3688.64289	0.99135
3686.58907	0.99174
3684.53526	0.99169
3682.48145	0.99152
3680.42764	0.99144
3678.37383	0.99110
3676.32002	0.99032
3674.26621	0.98984
3672.21240	0.99006
3670.15859	0.99051
3668.10478	0.99063
3666.05097	0.99030
3663.99716	0.99005
3661.94335	0.99003
3659.88954	0.99019
3657.83573	0.99025
3655.78192	0.98988
3653.72811	0.98953
3651.67430	0.98966
3649.62049	0.98978
3647.56668	0.98962
3645.51287	0.98952
3643.45906	0.98929
3641.40525	0.98893
3639.35144	0.98869
3637.29763	0.98845
3635.24382	0.98819
3633.19001	0.98821
3631.13620	0.98833
3629.08239	0.98820
3627.02858	0.98782
3624.97477	0.98767
3622.92096	0.98771
3620.86715	0.98778
3618.81334	0.98805
3616.75953	0.98811
3614.70572	0.98785
3612.65191	0.98756
3610.59810	0.98690
3608.54429	0.98600
3606.49048	0.98549
3604.43667	0.98530
3602.38286	0.98551
3600.32905	0.98602
3598.27524	0.98631
3596.22143	0.98650
3594.16762	0.98673
3592.11381	0.98665
3590.06000	0.98635
3588.00619	0.98614
3585.95238	0.98593
3583.89857	0.98580
3581.84476	0.98586
3579.79095	0.98586
3577.73714	0.98577
3575.68333	0.98571
3573.62952	0.98571
3571.57571	0.98550
3569.52190	0.98499
3567.46809	0.98470
3565.41428	0.98491
3563.36047	0.98514
3561.30666	0.98516
3559.25285	0.98489
3557.19904	0.98449
3555.14523	0.98439
3553.09142	0.98454
3551.03761	0.98443
3548.98380	0.98408
3546.92999	0.98398
3544.87618	0.98416
3542.82237	0.98441
3540.76856	0.98457
3538.71475	0.98421
3536.66094	0.98340
3534.60713	0.98313
3532.55332	0.98355
3530.49951	0.98367
3528.44570	0.98334
3526.39189	0.98316
3524.33808	0.98335
3522.28427	0.98346
3520.23046	0.98310
3518.17665	0.98250
3516.12284	0.98213
3514.06903	0.98213
3512.01522	0.98212
3509.96141	0.98205
3507.90760	0.98214
3505.85379	0.98219
3503.79998	0.98202
3501.74617	0.98183
3499.69236	0.98157
3497.63855	0.98114
3495.58474	0.98094
3493.53093	0.98103
3491.47712	0.98109
3489.42331	0.98113
3487.36950	0.98115
3485.31569	0.98109
3483.26188	0.98110
3481.20807	0.98106
3479.15426	0.98086
3477.10045	0.98073
3475.04664	0.98082
3472.99283	0.98098
3470.93902	0.98091
3468.88521	0.98060
3466.83140	0.98030
3464.77759	0.98018
3462.72378	0.98023
3460.66997	0.98031
3458.61616	0.98023
3456.56235	0.97997
3454.50854	0.97982
3452.45473	0.97985
3450.40092	0.97989
3448.34711	0.98001
3446.29330	0.97992
3444.23949	0.97945
3442.18568	0.97909
3440.13187	0.97912
3438.07806	0.97940
3436.02425	0.97969
3433.97044	0.97981
3431.91663	0.97969
3429.86282	0.97942
3427.80901	0.97907
3425.75520	0.97882
3423.70139	0.97877
3421.64758	0.97879
3419.59377	0.97889
3417.53996	0.97904
3415.48615	0.97913
3413.43234	0.97928
3411.37853	0.97945
3409.32472	0.97934
3407.27091	0.97910
3405.21710	0.97900
3403.16329	0.97896
3401.10948	0.97890
3399.05567	0.97893
3397.00186	0.97896
3394.94805	0.97885
3392.89424	0.97874
3390.84042	0.97886
3388.78661	0.97894
3386.73280	0.97886
3384.67899	0.97900
3382.62518	0.97940
3380.57137	0.97955
3378.51756	0.97928
3376.46375	0.97903
3374.40994	0.97904
3372.35613	0.97923
3370.30232	0.97944
3368.24851	0.97951
3366.19470	0.97956
3364.14089	0.97973
3362.08708	0.97979
3360.03327	0.97965
3357.97946	0.97964
3355.92565	0.97969
3353.87184	0.97975
3351.81803	0.98000
3349.76422	0.98018
3347.71041	0.98023
3345.65660	0.98035
3343.60279	0.98047
3341.54898	0.98045
3339.49517	0.98020
3337.44136	0.98002
3335.38755	0.98003
3333.33374	0.97999
3331.27993	0.97996
3329.22612	0.98002
3327.17231	0.98032
3325.11850	0.98065
3323.06469	0.98059
3321.01088	0.98038
3318.95707	0.98051
3316.90326	0.98074
3314.84945	0.98069
3312.79564	0.98041
3310.74183	0.98019
3308.68802	0.98027
3306.63421	0.98048
3304.58040	0.98057
3302.52659	0.98067
3300.47278	0.98085
3298.41897	0.98106
3296.36516	0.98123
3294.31135	0.98121
3292.25754	0.98092
3290.20373	0.98070
3288.14992	0.98080
3286.09611	0.98082
3284.04230	0.98077
3281.98849	0.98108
3279.93468	0.98149
3277.88087	0.98138
3275.82706	0.98110
3273.77325	0.98118
3271.71944	0.98135
3269.66563	0.98137
3267.61182	0.98144
3265.55801	0.98158
3263.50420	0.98147
3261.45039	0.98106
3259.39658	0.98086
3257.34277	0.98102
3255.28896	0.98115
3253.23515	0.98119
3251.18134	0.98139
3249.12753	0.98155
3247.07372	0.98148
3245.01991	0.98147
3242.96610	0.98163
3240.91229	0.98168
3238.85848	0.98155
3236.80467	0.98149
3234.75086	0.98157
3232.69705	0.98164
3230.64324	0.98175
3228.58943	0.98181
3226.53562	0.98166
3224.48181	0.98143
3222.42800	0.98134
3220.37419	0.98151
3218.32038	0.98173
3216.26657	0.98166
3214.21276	0.98146
3212.15895	0.98142
3210.10514	0.98159
3208.05133	0.98191
3205.99752	0.98235
3203.94371	0.98274
3201.88990	0.98286
3199.83609	0.98289
3197.78228	0.98311
3195.72847	0.98337
3193.67466	0.98345
3191.62085	0.98334
3189.56704	0.98315
3187.51323	0.98306
3185.45942	0.98315
3183.40561	0.98325
3181.35180	0.98323
3179.29799	0.98304
3177.24418	0.98278
3175.19037	0.98275
3173.13656	0.98290
3171.08275	0.98304
3169.02894	0.98315
3166.97513	0.98295
3164.92132	0.98258
3162.86751	0.98257
3160.81370	0.98287
3158.75989	0.98325
3156.70608	0.98347
3154.65227	0.98343
3152.59846	0.98326
3150.54465	0.98326
3148.49084	0.98358
3146.43703	0.98370
3144.38322	0.98341
3142.32941	0.98319
3140.27560	0.98328
3138.22179	0.98346
3136.16798	0.98354
3134.11417	0.98349
3132.06036	0.98345
3130.00655	0.98352
3127.95274	0.98364
3125.89893	0.98369
3123.84512	0.98366
3121.79131	0.98366
3119.73750	0.98366
3117.68369	0.98358
3115.62988	0.98342
3113.57607	0.98323
3111.52226	0.98312
3109.46845	0.98316
3107.41464	0.98327
3105.36083	0.98327
3103.30702	0.98301
3101.25321	0.98278
3099.19940	0.98270
3097.14559	0.98252
3095.09177	0.98220
3093.03796	0.98198
3090.98415	0.98196
3088.93034	0.98196
3086.87653	0.98180
3084.82272	0.98164
3082.76891	0.98156
3080.71510	0.98142
3078.66129	0.98129
3076.60748	0.98127
3074.55367	0.98125
3072.49986	0.98117
3070.44605	0.98115
3068.39224	0.98127
3066.33843	0.98140
3064.28462	0.98151
3062.23081	0.98145
3060.17700	0.98109
3058.12319	0.98075
3056.06938	0.98044
3054.01557	0.97989
3051.96176	0.97954
3049.90795	0.97956
3047.85414	0.97957
3045.80033	0.97956
3043.74652	0.97948
3041.69271	0.97927
3039.63890	0.97899
3037.58509	0.97876
3035.53128	0.97867
3033.47747	0.97846
3031.42366	0.97808
3029.36985	0.97785
3027.31604	0.97775
3025.26223	0.97759
3023.20842	0.97730
3021.15461	0.97710
3019.10080	0.97717
3017.04699	0.97722
3014.99318	0.97696
3012.93937	0.97662
3010.88556	0.97644
3008.83175	0.97634
3006.77794	0.97605
3004.72413	0.97556
3002.67032	0.97517
3000.61651	0.97498
2998.56270	0.97467
2996.50889	0.97399
2994.45508	0.97317
2992.40127	0.97244
2990.34746	0.97177
2988.29365	0.97098
2986.23984	0.96983
2984.18603	0.96832
2982.13222	0.96672
2980.07841	0.96503
2978.02460	0.96299
2975.97079	0.96063
2973.91698	0.95800
2971.86317	0.95510
2969.80936	0.95173
2967.75555	0.94761
2965.70174	0.94302
2963.64793	0.93840
2961.59412	0.93391
2959.54031	0.92962
2957.48650	0.92528
2955.43269	0.92081
2953.37888	0.91668
2951.32507	0.91267
2949.27126	0.90746
2947.21745	0.89979
2945.16364	0.88908
2943.10983	0.87529
2941.05602	0.85841
2939.00221	0.83817
2936.94840	0.81445
2934.89459	0.78733
2932.84078	0.75670
2930.78697	0.72207
2928.73316	0.68236
2926.67935	0.63596
2924.62554	0.58154
2922.57173	0.51929
2920.51792	0.45253
2918.46411	0.38946
2916.41030	0.34320
2914.35649	0.32647
2912.30268	0.34218
2910.24887	0.38061
2908.19506	0.42767
2906.14125	0.47305
2904.08744	0.51193
2902.03363	0.54356
2899.97982	0.56947
2897.92601	0.59186
2895.87220	0.61261
2893.81839	0.63301
2891.76458	0.65385
2889.71077	0.67526
2887.65696	0.69694
2885.60315	0.71860
2883.54934	0.74007
2881.49553	0.76118
2879.44172	0.78149
2877.38791	0.80025
2875.33410	0.81621
2873.28029	0.82805
2871.22648	0.83519
2869.17267	0.83770
2867.11886	0.83551
2865.06505	0.82769
2863.01124	0.81246
2860.95743	0.78767
2858.90362	0.75046
2856.84981	0.69674
2854.79600	0.62243
2852.74219	0.52914
2850.68838	0.43336
2848.63457	0.36775
2846.58076	0.36024
2844.52695	0.40996
2842.47314	0.49185
2840.41933	0.57936
2838.36552	0.65671
2836.31171	0.71854
2834.25790	0.76577
2832.20409	0.80147
2830.15028	0.82874
2828.09647	0.84985
2826.04266	0.86632
2823.98885	0.87946
2821.93504	0.89036
2819.88123	0.89968
2817.82742	0.90766
2815.77361	0.91428
2813.71980	0.91963
2811.66599	0.92414
2809.61218	0.92820
2807.55837	0.93199
2805.50456	0.93557
2803.45075	0.93896
2801.39693	0.94184
2799.34312	0.94406
2797.28931	0.94619
2795.23550	0.94849
2793.18169	0.95062
2791.12788	0.95256
2789.07407	0.95451
2787.02026	0.95649
2784.96645	0.95830
2782.91264	0.95970
2780.85883	0.96084
2778.80502	0.96199
2776.75121	0.96312
2774.69740	0.96423
2772.64359	0.96533
2770.58978	0.96628
2768.53597	0.96696
2766.48216	0.96749
2764.42835	0.96808
2762.37454	0.96877
2760.32073	0.96939
2758.26692	0.96986
2756.21311	0.97024
2754.15930	0.97055
2752.10549	0.97073
2750.05168	0.97098
2747.99787	0.97129
2745.94406	0.97143
2743.89025	0.97142
2741.83644	0.97135
2739.78263	0.97133
2737.72882	0.97157
2735.67501	0.97204
2733.62120	0.97244
2731.56739	0.97254
2729.51358	0.97249
2727.45977	0.97251
2725.40596	0.97266
2723.35215	0.97301
2721.29834	0.97358
2719.24453	0.97412
2717.19072	0.97449
2715.13691	0.97481
2713.08310	0.97528
2711.02929	0.97560
2708.97548	0.97561
2706.92167	0.97574
2704.86786	0.97600
2702.81405	0.97595
2700.76024	0.97597
2698.70643	0.97624
2696.65262	0.97627
2694.59881	0.97607
2692.54500	0.97607
2690.49119	0.97624
2688.43738	0.97639
2686.38357	0.97646
2684.32976	0.97641
2682.27595	0.97626
2680.22214	0.97613
2678.16833	0.97613
2676.11452	0.97606
2674.06071	0.97576
2672.00690	0.97537
2669.95309	0.97500
2667.89928	0.97459
2665.84547	0.97420
2663.79166	0.97400
2661.73785	0.97395
2659.68404	0.97386
2657.63023	0.97369
2655.57642	0.97359
2653.52261	0.97375
2651.46880	0.97404
2649.41499	0.97425
2647.36118	0.97432
2645.30737	0.97432
2643.25356	0.97425
2641.19975	0.97408
2639.14594	0.97399
2637.09213	0.97408
2635.03832	0.97426
2632.98451	0.97451
2630.93070	0.97475
2628.87689	0.97492
2626.82308	0.97542
2624.76927	0.97635
2622.71546	0.97707
2620.66165	0.97720
2618.60784	0.97728
2616.55403	0.97767
2614.50022	0.97808
2612.44641	0.97841
2610.39260	0.97882
2608.33879	0.97930
2606.28498	0.97964
2604.23117	0.97987
2602.17736	0.98023
2600.12355	0.98079
2598.06974	0.98148
2596.01593	0.98198
2593.96212	0.98204
2591.90831	0.98189
2589.85450	0.98171
2587.80069	0.98177
2585.74688	0.98217
2583.69307	0.98250
2581.63926	0.98260
2579.58545	0.98263
2577.53164	0.98275
2575.47783	0.98308
2573.42402	0.98354
2571.37021	0.98390
2569.31640	0.98411
2567.26259	0.98421
2565.20878	0.98422
2563.15497	0.98416
2561.10116	0.98413
2559.04735	0.98408
2556.99354	0.98394
2554.93973	0.98404
2552.88592	0.98443
2550.83211	0.98469
2548.77830	0.98465
2546.72449	0.98461
2544.67068	0.98482
2542.61687	0.98528
2540.56306	0.98575
2538.50925	0.98597
2536.45544	0.98604
2534.40163	0.98612
2532.34782	0.98618
2530.29401	0.98608
2528.24020	0.98570
2526.18639	0.98536
2524.13258	0.98549
2522.07877	0.98592
2520.02496	0.98641
2517.97115	0.98672
2515.91734	0.98670
2513.86353	0.98668
2511.80972	0.98676
2509.75591	0.98701
2507.70210	0.98735
2505.64828	0.98743
2503.59447	0.98726
2501.54066	0.98725
2499.48685	0.98743
2497.43304	0.98746
2495.37923	0.98752
2493.32542	0.98762
2491.27161	0.98749
2489.21780	0.98736
2487.16399	0.98742
2485.11018	0.98760
2483.05637	0.98762
2481.00256	0.98742
2478.94875	0.98764
2476.89494	0.98800
2474.84113	0.98771
2472.78732	0.98745
2470.73351	0.98803
2468.67970	0.98892
2466.62589	0.98931
2464.57208	0.98931
2462.51827	0.98944
2460.46446	0.98972
2458.41065	0.98972
2456.35684	0.98920
2454.30303	0.98869
2452.24922	0.98862
2450.19541	0.98853
2448.14160	0.98825
2446.08779	0.98819
2444.03398	0.98851
2441.98017	0.98878
2439.92636	0.98872
2437.87255	0.98867
2435.81874	0.98891
2433.76493	0.98926
2431.71112	0.98939
2429.65731	0.98927
2427.60350	0.98922
2425.54969	0.98930
2423.49588	0.98926
2421.44207	0.98905
2419.38826	0.98897
2417.33445	0.98904
2415.28064	0.98918
2413.22683	0.98924
2411.17302	0.98907
2409.11921	0.98894
2407.06540	0.98903
2405.01159	0.98910
2402.95778	0.98905
2400.90397	0.98914
2398.85016	0.98924
2396.79635	0.98900
2394.74254	0.98875
2392.68873	0.98898
2390.63492	0.98925
2388.58111	0.98909
2386.52730	0.98875
2384.47349	0.98851
2382.41968	0.98868
2380.36587	0.98908
2378.31206	0.98933
2376.25825	0.98942
2374.20444	0.98927
2372.15063	0.98910
2370.09682	0.98944
2368.04301	0.98987
2365.98920	0.98960
2363.93539	0.98894
2361.88158	0.98824
2359.82777	0.98813
2357.77396	0.98906
2355.72015	0.98962
2353.66634	0.98905
2351.61253	0.98803
2349.55872	0.98723
2347.50491	0.98678
2345.45110	0.98678
2343.39729	0.98726
2341.34348	0.98715
2339.28967	0.98625
2337.23586	0.98616
2335.18205	0.98703
2333.12824	0.98741
2331.07443	0.98707
2329.02062	0.98652
2326.96681	0.98562
2324.91300	0.98454
2322.85919	0.98425
2320.80538	0.98503
2318.75157	0.98591
2316.69776	0.98636
2314.64395	0.98675
2312.59014	0.98731
2310.53633	0.98761
2308.48252	0.98735
2306.42871	0.98685
2304.37490	0.98667
2302.32109	0.98681
2300.26728	0.98679
2298.21347	0.98647
2296.15966	0.98612
2294.10585	0.98611
2292.05204	0.98649
2289.99823	0.98675
2287.94442	0.98662
2285.89061	0.98630
2283.83680	0.98598
2281.78299	0.98602
2279.72918	0.98696
2277.67537	0.98833
2275.62156	0.98911
2273.56775	0.98939
2271.51394	0.98962
2269.46013	0.98947
2267.40632	0.98893
2265.35251	0.98873
2263.29870	0.98893
2261.24489	0.98921
2259.19108	0.98959
2257.13727	0.98985
2255.08346	0.98984
2253.02965	0.98972
2250.97584	0.98985
2248.92203	0.99005
2246.86822	0.98940
2244.81441	0.98815
2242.76060	0.98758
2240.70679	0.98821
2238.65298	0.98945
2236.59917	0.99025
2234.54536	0.99019
2232.49155	0.98971
2230.43774	0.98911
2228.38393	0.98821
2226.33012	0.98770
2224.27631	0.98859
2222.22250	0.98998
2220.16869	0.99050
2218.11488	0.99035
2216.06107	0.99016
2214.00726	0.98955
2211.95344	0.98892
2209.89963	0.98953
2207.84582	0.99045
2205.79201	0.99032
2203.73820	0.98961
2201.68439	0.98930
2199.63058	0.98985
2197.57677	0.99117
2195.52296	0.99193
2193.46915	0.99057
2191.41534	0.98866
2189.36153	0.98852
2187.30772	0.98974
2185.25391	0.99104
2183.20010	0.99133
2181.14629	0.99055
2179.09248	0.99004
2177.03867	0.99067
2174.98486	0.99227
2172.93105	0.99358
2170.87724	0.99260
2168.82343	0.99008
2166.76962	0.98894
2164.71581	0.98893
2162.66200	0.98940
2160.60819	0.99118
2158.55438	0.99366
2156.50057	0.99537
2154.44676	0.99476
2152.39295	0.99301
2150.33914	0.99245
2148.28533	0.99261
2146.23152	0.99224
2144.17771	0.99196
2142.12390	0.99249
2140.07009	0.99293
2138.01628	0.99306
2135.96247	0.99369
2133.90866	0.99371
2131.85485	0.99251
2129.80104	0.99193
2127.74723	0.99194
2125.69342	0.99175
2123.63961	0.99235
2121.58580	0.99325
2119.53199	0.99269
2117.47818	0.99151
2115.42437	0.99109
2113.37056	0.99097
2111.31675	0.99079
2109.26294	0.99080
2107.20913	0.99086
2105.15532	0.99070
2103.10151	0.99032
2101.04770	0.99016
2098.99389	0.99027
2096.94008	0.99055
2094.88627	0.99130
2092.83246	0.99165
2090.77865	0.99108
2088.72484	0.99038
2086.67103	0.98987
2084.61722	0.98934
2082.56341	0.98895
2080.50960	0.98886
2078.45579	0.98904
2076.40198	0.98969
2074.34817	0.99063
2072.29436	0.99152
2070.24055	0.99210
2068.18674	0.99183
2066.13293	0.99091
2064.07912	0.99057
2062.02531	0.99117
2059.97150	0.99175
2057.91769	0.99170
2055.86388	0.99168
2053.81007	0.99178
2051.75626	0.99136
2049.70245	0.99117
2047.64864	0.99099
2045.59483	0.99041
2043.54102	0.99028
2041.48721	0.98988
2039.43340	0.98920
2037.37959	0.98941
2035.32578	0.98986
2033.27197	0.99005
2031.21816	0.99075
2029.16435	0.99199
2027.11054	0.99314
2025.05673	0.99371
2023.00292	0.99371
2020.94911	0.99339
2018.89530	0.99252
2016.84149	0.99162
2014.78768	0.99122
2012.73387	0.99091
2010.68006	0.99098
2008.62625	0.99162
2006.57244	0.99219
2004.51863	0.99262
2002.46482	0.99285
2000.41101	0.99296
1998.35720	0.99300
1996.30339	0.99229
1994.24958	0.99077
1992.19577	0.98969
1990.14196	0.99014
1988.08815	0.99105
1986.03434	0.99086
1983.98053	0.98988
1981.92672	0.98927
1979.87291	0.98924
1977.81910	0.99006
1975.76529	0.99237
1973.71148	0.99426
1971.65767	0.99421
1969.60386	0.99358
1967.55005	0.99284
1965.49624	0.99213
1963.44243	0.99291
1961.38862	0.99458
1959.33481	0.99524
1957.28100	0.99471
1955.22719	0.99335
1953.17338	0.99157
1951.11957	0.99062
1949.06576	0.99077
1947.01195	0.99065
1944.95814	0.99054
1942.90433	0.99126
1940.85052	0.99170
1938.79671	0.99157
1936.74290	0.99149
1934.68909	0.99180
1932.63528	0.99232
1930.58147	0.99274
1928.52766	0.99296
1926.47385	0.99250
1924.42004	0.99169
1922.36623	0.99157
1920.31242	0.99202
1918.25861	0.99200
1916.20479	0.99137
1914.15098	0.99097
1912.09717	0.99075
1910.04336	0.99032
1907.98955	0.98987
1905.93574	0.98945
1903.88193	0.98936
1901.82812	0.98956
1899.77431	0.98935
1897.72050	0.98893
1895.66669	0.98895
1893.61288	0.98915
1891.55907	0.98916
1889.50526	0.98926
1887.45145	0.98970
1885.39764	0.99031
1883.34383	0.99062
1881.29002	0.99041
1879.23621	0.99018
1877.18240	0.99027
1875.12859	0.99033
1873.07478	0.99031
1871.02097	0.99019
1868.96716	0.98991
1866.91335	0.98971
1864.85954	0.98947
1862.80573	0.98957
1860.75192	0.99020
1858.69811	0.99068
1856.64430	0.99074
1854.59049	0.99066
1852.53668	0.99062
1850.48287	0.99061
1848.42906	0.99058
1846.37525	0.99062
1844.32144	0.99048
1842.26763	0.99018
1840.21382	0.99003
1838.16001	0.98992
1836.10620	0.98960
1834.05239	0.98918
1831.99858	0.98886
1829.94477	0.98875
1827.89096	0.98888
1825.83715	0.98893
1823.78334	0.98881
1821.72953	0.98873
1819.67572	0.98864
1817.62191	0.98857
1815.56810	0.98873
1813.51429	0.98875
1811.46048	0.98829
1809.40667	0.98775
1807.35286	0.98743
1805.29905	0.98714
1803.24524	0.98675
1801.19143	0.98644
1799.13762	0.98619
1797.08381	0.98565
1795.03000	0.98502
1792.97619	0.98461
1790.92238	0.98400
1788.86857	0.98296
1786.81476	0.98189
1784.76095	0.98090
1782.70714	0.98028
1780.65333	0.98014
1778.59952	0.98010
1776.54571	0.97987
1774.49190	0.97943
1772.43809	0.97870
1770.38428	0.97786
1768.33047	0.97727
1766.27666	0.97708
1764.22285	0.97698
1762.16904	0.97660
1760.11523	0.97621
1758.06142	0.97590
1756.00761	0.97530
1753.95380	0.97448
1751.89999	0.97332
1749.84618	0.97141
1747.79237	0.96889
1745.73856	0.96596
1743.68475	0.96279
1741.63094	0.95976
1739.57713	0.95716
1737.52332	0.95564
1735.46951	0.95497
1733.41570	0.95427
1731.36189	0.95292
1729.30808	0.95020
1727.25427	0.94508
1725.20046	0.93718
1723.14665	0.92751
1721.09284	0.91891
1719.03903	0.91157
1716.98522	0.90387
1714.93141	0.89870
1712.87760	0.89795
1710.82379	0.90081
1708.76998	0.90637
1706.71617	0.91403
1704.66236	0.92240
1702.60855	0.92902
1700.55474	0.93570
1698.50093	0.94269
1696.44712	0.94865
1694.39331	0.95451
1692.33950	0.95872
1690.28569	0.96188
1688.23188	0.96441
1686.17807	0.96616
1684.12426	0.96800
1682.07045	0.96974
1680.01664	0.97073
1677.96283	0.97147
1675.90902	0.97211
1673.85521	0.97253
1671.80140	0.97284
1669.74759	0.97316
1667.69378	0.97338
1665.63997	0.97345
1663.58616	0.97361
1661.53235	0.97389
1659.47854	0.97412
1657.42473	0.97415
1655.37092	0.97388
1653.31711	0.97352
1651.26330	0.97379
1649.20949	0.97406
1647.15568	0.97406
1645.10187	0.97395
1643.04806	0.97382
1640.99425	0.97362
1638.94044	0.97340
1636.88663	0.97328
1634.83282	0.97311
1632.77901	0.97287
1630.72520	0.97271
1628.67139	0.97254
1626.61758	0.97235
1624.56377	0.97224
1622.50996	0.97234
1620.45614	0.97246
1618.40233	0.97254
1616.34852	0.97289
1614.29471	0.97326
1612.24090	0.97326
1610.18709	0.97319
1608.13328	0.97308
1606.07947	0.97281
1604.02566	0.97257
1601.97185	0.97248
1599.91804	0.97233
1597.86423	0.97191
1595.81042	0.97158
1593.75661	0.97150
1591.70280	0.97119
1589.64899	0.97046
1587.59518	0.96971
1585.54137	0.96904
1583.48756	0.96849
1581.43375	0.96817
1579.37994	0.96783
1577.32613	0.96730
1575.27232	0.96677
1573.21851	0.96652
1571.16470	0.96626
1569.11089	0.96614
1567.05708	0.96632
1565.00327	0.96639
1562.94946	0.96617
1560.89565	0.96568
1558.84184	0.96509
1556.78803	0.96520
1554.73422	0.96564
1552.68041	0.96593
1550.62660	0.96610
1548.57279	0.96627
1546.51898	0.96662
1544.46517	0.96724
1542.41136	0.96807
1540.35755	0.96947
1538.30374	0.97119
1536.24993	0.97218
1534.19612	0.97299
1532.14231	0.97406
1530.08850	0.97500
1528.03469	0.97569
1525.98088	0.97609
1523.92707	0.97643
1521.87326	0.97691
1519.81945	0.97711
1517.76564	0.97701
1515.71183	0.97725
1513.65802	0.97773
1511.60421	0.97808
1509.55040	0.97819
1507.49659	0.97789
1505.44278	0.97737
1503.38897	0.97689
1501.33516	0.97635
1499.28135	0.97580
1497.22754	0.97539
1495.17373	0.97482
1493.11992	0.97388
1491.06611	0.97233
1489.01230	0.97014
1486.95849	0.96770
1484.90468	0.96491
1482.85087	0.96062
1480.79706	0.95255
1478.74325	0.93521
1476.68944	0.89262
1474.63563	0.81314
1472.58182	0.73427
1470.52801	0.71655
1468.47420	0.73107
1466.42039	0.73602
1464.36658	0.72854
1462.31277	0.73840
1460.25896	0.77578
1458.20515	0.82563
1456.15134	0.86570
1454.09753	0.88508
1452.04372	0.89763
1449.98991	0.90812
1447.93610	0.91587
1445.88229	0.92094
1443.82848	0.92415
1441.77467	0.92663
1439.72086	0.92885
1437.66705	0.93146
1435.61324	0.93477
1433.55943	0.93784
1431.50562	0.94083
1429.45181	0.94402
1427.39800	0.94672
1425.34419	0.94860
1423.29038	0.94978
1421.23657	0.95009
1419.18276	0.94959
1417.12895	0.94835
1415.07514	0.94684
1413.02133	0.94574
1410.96752	0.94561
1408.91371	0.94649
1406.85990	0.94828
1404.80609	0.95092
1402.75228	0.95357
1400.69847	0.95569
1398.64466	0.95739
1396.59085	0.95890
1394.53704	0.96039
1392.48323	0.96141
1390.42942	0.96177
1388.37561	0.96161
1386.32180	0.96065
1384.26799	0.95847
1382.21418	0.95483
1380.16037	0.95030
1378.10656	0.94668
1376.05275	0.94532
1373.99894	0.94597
1371.94513	0.94692
1369.89132	0.94738
1367.83751	0.94812
1365.78370	0.94950
1363.72989	0.95109
1361.67608	0.95253
1359.62227	0.95363
1357.56846	0.95430
1355.51465	0.95461
1353.46084	0.95482
1351.40703	0.95520
1349.35322	0.95588
1347.29941	0.95686
1345.24560	0.95789
1343.19179	0.95873
1341.13798	0.95951
1339.08417	0.96049
1337.03036	0.96133
1334.97655	0.96182
1332.92274	0.96216
1330.86893	0.96234
1328.81512	0.96217
1326.76130	0.96161
1324.70749	0.96087
1322.65368	0.96008
1320.59987	0.95923
1318.54606	0.95832
1316.49225	0.95744
1314.43844	0.95670
1312.38463	0.95605
1310.33082	0.95542
1308.27701	0.95485
1306.22320	0.95425
1304.16939	0.95356
1302.11558	0.95303
1300.06177	0.95273
1298.00796	0.95253
1295.95415	0.95249
1293.90034	0.95271
1291.84653	0.95317
1289.79272	0.95366
1287.73891	0.95397
1285.68510	0.95420
1283.63129	0.95441
1281.57748	0.95470
1279.52367	0.95522
1277.46986	0.95579
1275.41605	0.95611
1273.36224	0.95625
1271.30843	0.95637
1269.25462	0.95656
1267.20081	0.95677
1265.14700	0.95687
1263.09319	0.95684
1261.03938	0.95677
1258.98557	0.95671
1256.93176	0.95670
1254.87795	0.95672
1252.82414	0.95664
1250.77033	0.95643
1248.71652	0.95624
1246.66271	0.95617
1244.60890	0.95607
1242.55509	0.95596
1240.50128	0.95586
1238.44747	0.95568
1236.39366	0.95567
1234.33985	0.95583
1232.28604	0.95593
1230.23223	0.95598
1228.17842	0.95598
1226.12461	0.95583
1224.07080	0.95560
1222.01699	0.95546
1219.96318	0.95545
1217.90937	0.95545
1215.85556	0.95547
1213.80175	0.95555
1211.74794	0.95559
1209.69413	0.95561
1207.64032	0.95574
1205.58651	0.95577
1203.53270	0.95553
1201.47889	0.95530
1199.42508	0.95525
1197.37127	0.95502
1195.31746	0.95472
1193.26365	0.95462
1191.20984	0.95460
1189.15603	0.95459
1187.10222	0.95463
1185.04841	0.95461
1182.99460	0.95448
1180.94079	0.95416
1178.88698	0.95357
1176.83317	0.95302
1174.77936	0.95285
1172.72555	0.95288
1170.67174	0.95297
1168.61793	0.95323
1166.56412	0.95359
1164.51031	0.95397
1162.45650	0.95441
1160.40269	0.95504
1158.34888	0.95587
1156.29507	0.95681
1154.24126	0.95777
1152.18745	0.95854
1150.13364	0.95907
1148.07983	0.95963
1146.02602	0.96041
1143.97221	0.96105
1141.91840	0.96120
1139.86459	0.96106
1137.81078	0.96096
1135.75697	0.96089
1133.70316	0.96082
1131.64935	0.96076
1129.59554	0.96076
1127.54173	0.96092
1125.48792	0.96096
1123.43411	0.96073
1121.38030	0.96058
1119.32649	0.96046
1117.27268	0.96018
1115.21887	0.95993
1113.16506	0.95971
1111.11125	0.95948
1109.05744	0.95963
1107.00363	0.96012
1104.94982	0.96045
1102.89601	0.96053
1100.84220	0.96056
1098.78839	0.96067
1096.73458	0.96064
1094.68077	0.96037
1092.62696	0.96042
1090.57315	0.96059
1088.51934	0.96024
1086.46553	0.95970
1084.41172	0.95941
1082.35791	0.95933
1080.30410	0.95945
1078.25029	0.95978
1076.19648	0.96008
1074.14267	0.96030
1072.08886	0.96054
1070.03505	0.96066
1067.98124	0.96056
1065.92743	0.96049
1063.87362	0.96065
1061.81981	0.96084
1059.76600	0.96091
1057.71219	0.96092
1055.65838	0.96099
1053.60457	0.96120
1051.55076	0.96158
1049.49695	0.96224
1047.44314	0.96275
1045.38933	0.96269
1043.33552	0.96225
1041.28171	0.96191
1039.22790	0.96188
1037.17409	0.96198
1035.12028	0.96210
1033.06647	0.96221
1031.01265	0.96248
1028.95884	0.96307
1026.90503	0.96372
1024.85122	0.96403
1022.79741	0.96387
1020.74360	0.96362
1018.68979	0.96364
1016.63598	0.96365
1014.58217	0.96356
1012.52836	0.96368
1010.47455	0.96402
1008.42074	0.96433
1006.36693	0.96457
1004.31312	0.96467
1002.25931	0.96461
1000.20550	0.96466
998.15169	0.96494
996.09788	0.96509
994.04407	0.96505
991.99026	0.96501
989.93645	0.96482
987.88264	0.96456
985.82883	0.96442
983.77502	0.96429
981.72121	0.96423
979.66740	0.96439
977.61359	0.96457
975.55978	0.96451
973.50597	0.96420
971.45216	0.96363
969.39835	0.96289
967.34454	0.96233
965.29073	0.96203
963.23692	0.96176
961.18311	0.96154
959.12930	0.96153
957.07549	0.96157
955.02168	0.96139
952.96787	0.96108
950.91406	0.96094
948.86025	0.96087
946.80644	0.96071
944.75263	0.96056
942.69882	0.96047
940.64501	0.96050
938.59120	0.96049
936.53739	0.96054
934.48358	0.96091
932.42977	0.96132
930.37596	0.96152
928.32215	0.96172
926.26834	0.96203
924.21453	0.96233
922.16072	0.96269
920.10691	0.96318
918.05310	0.96357
915.99929	0.96361
913.94548	0.96340
911.89167	0.96316
909.83786	0.96313
907.78405	0.96329
905.73024	0.96347
903.67643	0.96369
901.62262	0.96370
899.56881	0.96350
897.51500	0.96343
895.46119	0.96347
893.40738	0.96365
891.35357	0.96414
889.29976	0.96475
887.24595	0.96511
885.19214	0.96547
883.13833	0.96601
881.08452	0.96630
879.03071	0.96620
876.97690	0.96616
874.92309	0.96638
872.86928	0.96648
870.81547	0.96654
868.76166	0.96686
866.70785	0.96706
864.65404	0.96715
862.60023	0.96747
860.54642	0.96763
858.49261	0.96750
856.43880	0.96752
854.38499	0.96764
852.33118	0.96774
850.27737	0.96796
848.22356	0.96809
846.16975	0.96774
844.11594	0.96729
842.06213	0.96715
840.00832	0.96741
837.95451	0.96786
835.90070	0.96811
833.84689	0.96819
831.79308	0.96796
829.73927	0.96738
827.68546	0.96699
825.63165	0.96689
823.57784	0.96706
821.52403	0.96739
819.47022	0.96744
817.41641	0.96710
815.36260	0.96665
813.30879	0.96644
811.25498	0.96633
809.20117	0.96597
807.14736	0.96563
805.09355	0.96572
803.03974	0.96601
800.98593	0.96615
798.93212	0.96607
796.87831	0.96584
794.82450	0.96554
792.77069	0.96499
790.71688	0.96446
788.66307	0.96426
786.60926	0.96396
784.55545	0.96339
782.50164	0.96294
780.44783	0.96278
778.39402	0.96293
776.34021	0.96327
774.28640	0.96339
772.23259	0.96311
770.17878	0.96265
768.12497	0.96233
766.07116	0.96197
764.01735	0.96146
761.96354	0.96125
759.90973	0.96139
757.85592	0.96123
755.80211	0.96051
753.74830	0.95960
751.69449	0.95892
749.64068	0.95823
747.58687	0.95711
745.53306	0.95605
743.47925	0.95480
741.42544	0.95204
739.37163	0.94736
737.31781	0.93867
735.26400	0.91814
733.21019	0.87611
731.15638	0.82583
729.10257	0.80307
727.04876	0.81000
724.99495	0.80944
722.94114	0.77537
720.88733	0.71566
718.83352	0.67715
716.77971	0.70072
714.72590	0.76938
712.67209	0.83895
710.61828	0.88483
708.56447	0.90980
706.51066	0.92398
704.45685	0.93301
702.40304	0.93922
700.34923	0.94360
698.29542	0.94670
696.24161	0.94897
694.18780	0.95053
692.13399	0.95184
690.08018	0.95328
688.02637	0.95417
685.97256	0.95415
683.91875	0.95401
681.86494	0.95415
679.81113	0.95403
677.75732	0.95360
675.70351	0.95375
673.64970	0.95477
671.59589	0.95582
669.54208	0.95657
667.48827	0.95712
665.43446	0.95721
663.38065	0.95697
661.32684	0.95668
659.27303	0.95687
657.21922	0.95743
655.16541	0.95764
653.11160	0.95745
651.05779	0.95748
649.00398	0.95801
646.95017	0.95819
644.89636	0.95790
642.84255	0.95798
640.78874	0.95814
638.73493	0.95807
636.68112	0.95804
634.62731	0.95801
632.57350	0.95790
630.51969	0.95800
628.46588	0.95830
626.41207	0.95814
624.35826	0.95766
622.30445	0.95738
620.25064	0.95750
618.19683	0.95787
616.14302	0.95795
614.08921	0.95778
612.03540	0.95759
609.98159	0.95767
607.92778	0.95828
605.87397	0.95857
603.82016	0.95809
601.76635	0.95782
599.71254	0.95838
597.65873	0.95900
595.60492	0.95917
593.55111	0.95900
591.49730	0.95832
589.44349	0.95772
587.38968	0.95789
585.33587	0.95868
583.28206	0.95954
581.22825	0.95956
579.17444	0.95892
577.12063	0.95874
575.06682	0.95893
573.01301	0.95888
570.95920	0.95866
568.90539	0.95819
566.85158	0.95784
564.79777	0.95785
562.74396	0.95720
560.69015	0.95631
558.63634	0.95645
556.58253	0.95675
554.52872	0.95614
552.47491	0.95541
550.42110	0.95538
548.36729	0.95583
546.31348	0.95606
544.25967	0.95600
542.20586	0.95596
540.15205	0.95563
538.09824	0.95540
536.04443	0.95589
533.99062	0.95645
531.93681	0.95664
529.88300	0.95643
527.82919	0.95574
525.77538	0.95555
523.72157	0.95575
521.66776	0.95476
519.61395	0.95315
517.56014	0.95308
515.50633	0.95520
513.45252	0.95751
511.39871	0.95859
509.34490	0.95864
507.29109	0.95766
505.23728	0.95641
503.18347	0.95594
501.12966	0.95609
499.07585	0.95711
497.02204	0.95853
494.96823	0.95801
492.91442	0.95553
490.86061	0.95363
488.80680	0.95340
486.75299	0.95470
484.69918	0.95662
482.64537	0.95665
480.59156	0.95511
478.53775	0.95491
476.48394	0.95560
474.43013	0.95553
472.37632	0.95517
470.32251	0.95563
468.26870	0.95561
466.21489	0.95438
464.16108	0.95383
462.10727	0.95521
460.05346	0.95699
457.99965	0.95694
455.94584	0.95673
453.89203	0.95682
451.83822	0.95607
449.78441	0.95649
447.73060	0.95772
445.67679	0.95812
443.62298	0.95864
441.56916	0.95912
439.51535	0.95815
437.46154	0.95696
435.40773	0.95877
433.35392	0.96121
431.30011	0.96025
429.24630	0.95918
427.19249	0.95900
425.13868	0.95646
423.08487	0.95368
421.03106	0.95456
418.97725	0.95858
416.92344	0.96079
414.86963	0.96068
412.81582	0.96131
410.76201	0.96227
408.70820	0.96296
406.65439	0.96215
404.60058	0.95814
402.54677	0.95615
400.49296	0.95870
398.43915	0.96005
