3996.70104	0.92908
3994.64724	0.92939
3992.59344	0.92985
3990.53964	0.93019
3988.48583	0.93022
3986.43203	0.92978
3984.37823	0.92934
3982.32442	0.92939
3980.27062	0.92978
3978.21682	0.93008
3976.16301	0.93022
3974.10921	0.93002
3972.05541	0.92943
3970.00160	0.92929
3967.94780	0.92955
3965.89400	0.92933
3963.84019	0.92909
3961.78639	0.92942
3959.73259	0.92977
3957.67878	0.92976
3955.62498	0.92981
3953.57118	0.93004
3951.51737	0.93008
3949.46357	0.92975
3947.40977	0.92943
3945.35596	0.92959
3943.30216	0.92994
3941.24836	0.92982
3939.19455	0.92940
3937.14075	0.92937
3935.08695	0.92967
3933.03315	0.92991
3930.97934	0.93033
3928.92554	0.93101
3926.87174	0.93121
3924.81793	0.93082
3922.76413	0.93021
3920.71033	0.92929
3918.65652	0.92847
3916.60272	0.92870
3914.54892	0.92953
3912.49511	0.92986
3910.44131	0.92982
3908.38751	0.93003
3906.33370	0.93041
3904.27990	0.93085
3902.22610	0.93124
3900.17229	0.93088
3898.11849	0.93040
3896.06469	0.93056
3894.01088	0.93055
3891.95708	0.93009
3889.90328	0.92995
3887.84947	0.93030
3885.79567	0.93106
3883.74187	0.93152
3881.68807	0.93082
3879.63426	0.92982
3877.58046	0.92939
3875.52666	0.92920
3873.47285	0.92944
3871.41905	0.93017
3869.36525	0.93041
3867.31144	0.93044
3865.25764	0.93091
3863.20384	0.93099
3861.15003	0.93040
3859.09623	0.93014
3857.04243	0.93026
3854.98862	0.92991
3852.93482	0.92982
3850.88102	0.93105
3848.82721	0.93173
3846.77341	0.93131
3844.71961	0.93016
3842.66580	0.92945
3840.61200	0.92964
3838.55820	0.93029
3836.50439	0.93135
3834.45059	0.93197
3832.39679	0.93172
3830.34298	0.93092
3828.28918	0.93017
3826.23538	0.93012
3824.18158	0.93060
3822.12777	0.93116
3820.07397	0.93166
3818.02017	0.93167
3815.96636	0.93147
3813.91256	0.93132
3811.85876	0.93118
3809.80495	0.93131
3807.75115	0.93189
3805.69735	0.93218
3803.64354	0.93178
3801.58974	0.93155
3799.53594	0.93153
3797.48213	0.93140
3795.42833	0.93189
3793.37453	0.93256
3791.32072	0.93238
3789.26692	0.93150
3787.21312	0.93092
3785.15931	0.93110
3783.10551	0.93131
3781.05171	0.93117
3778.99790	0.93127
3776.94410	0.93160
3774.89030	0.93181
3772.83650	0.93196
3770.78269	0.93179
3768.72889	0.93114
3766.67509	0.93084
3764.62128	0.93128
3762.56748	0.93176
3760.51368	0.93215
3758.45987	0.93246
3756.40607	0.93238
3754.35227	0.93238
3752.29846	0.93285
3750.24466	0.93327
3748.19086	0.93306
3746.13705	0.93298
3744.08325	0.93349
3742.02945	0.93399
3739.97564	0.93432
3737.92184	0.93457
3735.86804	0.93416
3733.81423	0.93344
3731.76043	0.93340
3729.70663	0.93343
3727.65282	0.93354
3725.59902	0.93388
3723.54522	0.93360
3721.49141	0.93280
3719.43761	0.93217
3717.38381	0.93188
3715.33001	0.93204
3713.27620	0.93211
3711.22240	0.93119
3709.16860	0.92986
3707.11479	0.92872
3705.06099	0.92737
3703.00719	0.92592
3700.95338	0.92458
3698.89958	0.92376
3696.84578	0.92370
3694.79197	0.92417
3692.73817	0.92475
3690.68437	0.92514
3688.63056	0.92563
3686.57676	0.92626
3684.52296	0.92617
3682.46915	0.92545
3680.41535	0.92471
3678.36155	0.92446
3676.30774	0.92510
3674.25394	0.92545
3672.20014	0.92461
3670.14633	0.92355
3668.09253	0.92290
3666.03873	0.92261
3663.98492	0.92239
3661.93112	0.92250
3659.87732	0.92280
3657.82352	0.92266
3655.76971	0.92206
3653.71591	0.92141
3651.66211	0.92112
3649.60830	0.92131
3647.55450	0.92079
3645.50070	0.91989
3643.44689	0.91937
3641.39309	0.91864
3639.33929	0.91801
3637.28548	0.91785
3635.23168	0.91758
3633.17788	0.91686
3631.12407	0.91584
3629.07027	0.91437
3627.01647	0.91316
3624.96266	0.91310
3622.90886	0.91340
3620.85506	0.91331
3618.80125	0.91340
3616.74745	0.91425
3614.69365	0.91479
3612.63984	0.91499
3610.58604	0.91549
3608.53224	0.91595
3606.47844	0.91596
3604.42463	0.91584
3602.37083	0.91570
3600.31703	0.91541
3598.26322	0.91513
3596.20942	0.91527
3594.15562	0.91540
3592.10181	0.91485
3590.04801	0.91445
3587.99421	0.91464
3585.94040	0.91500
3583.88660	0.91517
3581.83280	0.91503
3579.77899	0.91480
3577.72519	0.91442
3575.67139	0.91371
3573.61758	0.91333
3571.56378	0.91383
3569.50998	0.91440
3567.45617	0.91389
3565.40237	0.91275
3563.34857	0.91226
3561.29476	0.91217
3559.24096	0.91184
3557.18716	0.91157
3555.13335	0.91190
3553.07955	0.91204
3551.02575	0.91136
3548.97195	0.91053
3546.91814	0.91031
3544.86434	0.91091
3542.81054	0.91148
3540.75673	0.91160
3538.70293	0.91139
3536.64913	0.91095
3534.59532	0.91067
3532.54152	0.91054
3530.48772	0.91025
3528.43391	0.90989
3526.38011	0.90956
3524.32631	0.90937
3522.27250	0.90950
3520.21870	0.90936
3518.16490	0.90884
3516.11109	0.90831
3514.05729	0.90802
3512.00349	0.90857
3509.94968	0.90963
3507.89588	0.91000
3505.84208	0.90971
3503.78827	0.90953
3501.73447	0.90938
3499.68067	0.90919
3497.62687	0.90913
3495.57306	0.90921
3493.51926	0.90945
3491.46546	0.90935
3489.41165	0.90903
3487.35785	0.90898
3485.30405	0.90891
3483.25024	0.90873
3481.19644	0.90840
3479.14264	0.90793
3477.08883	0.90778
3475.03503	0.90785
3472.98123	0.90788
3470.92742	0.90784
3468.87362	0.90760
3466.81982	0.90686
3464.76601	0.90612
3462.71221	0.90604
3460.65841	0.90635
3458.60460	0.90661
3456.55080	0.90635
3454.49700	0.90558
3452.44319	0.90500
3450.38939	0.90482
3448.33559	0.90467
3446.28178	0.90438
3444.22798	0.90425
3442.17418	0.90445
3440.12038	0.90483
3438.06657	0.90489
3436.01277	0.90459
3433.95897	0.90441
3431.90516	0.90434
3429.85136	0.90426
3427.79756	0.90434
3425.74375	0.90444
3423.68995	0.90469
3421.63615	0.90485
3419.58234	0.90429
3417.52854	0.90354
3415.47474	0.90351
3413.42093	0.90387
3411.36713	0.90370
3409.31333	0.90286
3407.25952	0.90213
3405.20572	0.90198
3403.15192	0.90224
3401.09811	0.90256
3399.04431	0.90275
3396.99051	0.90286
3394.93670	0.90289
3392.88290	0.90287
3390.82910	0.90269
3388.77529	0.90230
3386.72149	0.90222
3384.66769	0.90254
3382.61389	0.90281
3380.56008	0.90292
3378.50628	0.90275
3376.45248	0.90259
3374.39867	0.90308
3372.34487	0.90388
3370.29107	0.90419
3368.23726	0.90397
3366.18346	0.90354
3364.12966	0.90306
3362.07585	0.90296
3360.02205	0.90316
3357.96825	0.90337
3355.91444	0.90355
3353.86064	0.90348
3351.80684	0.90340
3349.75303	0.90386
3347.69923	0.90472
3345.64543	0.90514
3343.59162	0.90479
3341.53782	0.90409
3339.48402	0.90351
3337.43021	0.90337
3335.37641	0.90355
3333.32261	0.90375
3331.26881	0.90416
3329.21500	0.90453
3327.16120	0.90443
3325.10740	0.90451
3323.05359	0.90500
3320.99979	0.90540
3318.94599	0.90547
3316.89218	0.90521
3314.83838	0.90505
3312.78458	0.90515
3310.73077	0.90521
3308.67697	0.90540
3306.62317	0.90589
3304.56936	0.90639
3302.51556	0.90680
3300.46176	0.90704
3298.40795	0.90677
3296.35415	0.90620
3294.30035	0.90595
3292.24654	0.90606
3290.19274	0.90627
3288.13894	0.90664
3286.08513	0.90710
3284.03133	0.90739
3281.97753	0.90758
3279.92372	0.90751
3277.86992	0.90725
3275.81612	0.90738
3273.76232	0.90749
3271.70851	0.90735
3269.65471	0.90738
3267.60091	0.90758
3265.54710	0.90809
3263.49330	0.90852
3261.43950	0.90792
3259.38569	0.90725
3257.33189	0.90774
3255.27809	0.90844
3253.22428	0.90849
3251.17048	0.90817
3249.11668	0.90810
3247.06287	0.90855
3245.00907	0.90905
3242.95527	0.90963
3240.90146	0.91025
3238.84766	0.91026
3236.79386	0.90987
3234.74005	0.90954
3232.68625	0.90904
3230.63245	0.90861
3228.57864	0.90869
3226.52484	0.90904
3224.47104	0.90955
3222.41724	0.91027
3220.36343	0.91089
3218.30963	0.91112
3216.25583	0.91108
3214.20202	0.91112
3212.14822	0.91152
3210.09442	0.91201
3208.04061	0.91228
3205.98681	0.91228
3203.93301	0.91204
3201.87920	0.91193
3199.82540	0.91225
3197.77160	0.91286
3195.71779	0.91324
3193.66399	0.91323
3191.61019	0.91345
3189.55638	0.91384
3187.50258	0.91365
3185.44878	0.91344
3183.39497	0.91379
3181.34117	0.91407
3179.28737	0.91375
3177.23356	0.91327
3175.17976	0.91343
3173.12596	0.91408
3171.07215	0.91458
3169.01835	0.91477
3166.96455	0.91484
3164.91075	0.91487
3162.85694	0.91490
3160.80314	0.91500
3158.74934	0.91513
3156.69553	0.91554
3154.64173	0.91603
3152.58793	0.91602
3150.53412	0.91608
3148.48032	0.91668
3146.42652	0.91711
3144.37271	0.91726
3142.31891	0.91758
3140.26511	0.91801
3138.21130	0.91817
3136.15750	0.91772
3134.10370	0.91720
3132.04989	0.91749
3129.99609	0.91828
3127.94229	0.91887
3125.88848	0.91905
3123.83468	0.91913
3121.78088	0.91937
3119.72707	0.91937
3117.67327	0.91926
3115.61947	0.91930
3113.56566	0.91897
3111.51186	0.91821
3109.45806	0.91763
3107.40426	0.91718
3105.35045	0.91670
3103.29665	0.91668
3101.24285	0.91707
3099.18904	0.91737
3097.13524	0.91731
3095.08144	0.91707
3093.02763	0.91703
3090.97383	0.91665
3088.92003	0.91503
3086.86622	0.91218
3084.81242	0.90882
3082.75862	0.90629
3080.70481	0.90596
3078.65101	0.90748
3076.59721	0.90941
3074.54340	0.91069
3072.48960	0.91095
3070.43580	0.91032
3068.38199	0.90898
3066.32819	0.90699
3064.27439	0.90424
3062.22058	0.90119
3060.16678	0.89930
3058.11298	0.89932
3056.05918	0.90092
3054.00537	0.90360
3051.95157	0.90669
3049.89777	0.90931
3047.84396	0.91114
3045.79016	0.91245
3043.73636	0.91328
3041.68255	0.91301
3039.62875	0.91142
3037.57495	0.90916
3035.52114	0.90612
3033.46734	0.90131
3031.41354	0.89433
3029.35973	0.88601
3027.30593	0.87864
3025.25213	0.87489
3023.19832	0.87618
3021.14452	0.88202
3019.09072	0.88985
3017.03691	0.89698
3014.98311	0.90269
3012.92931	0.90701
3010.87550	0.90970
3008.82170	0.91091
3006.76790	0.91118
3004.71409	0.91100
3002.66029	0.91066
3000.60649	0.91088
2998.55269	0.91234
2996.49888	0.91422
2994.44508	0.91574
2992.39128	0.91708
2990.33747	0.91812
2988.28367	0.91852
2986.22987	0.91861
2984.17606	0.91889
2982.12226	0.91931
2980.06846	0.91970
2978.01465	0.92010
2975.96085	0.92009
2973.90705	0.91954
2971.85324	0.91906
2969.79944	0.91866
2967.74564	0.91834
2965.69183	0.91824
2963.63803	0.91796
2961.58423	0.91744
2959.53042	0.91683
2957.47662	0.91597
2955.42282	0.91498
2953.36901	0.91406
2951.31521	0.91299
2949.26141	0.91157
2947.20761	0.90959
2945.15380	0.90694
2943.10000	0.90403
2941.04620	0.90085
2938.99239	0.89694
2936.93859	0.89217
2934.88479	0.88672
2932.83098	0.88118
2930.77718	0.87585
2928.72338	0.87066
2926.66957	0.86586
2924.61577	0.86194
2922.56197	0.85930
2920.50816	0.85820
2918.45436	0.85860
2916.40056	0.86001
2914.34675	0.86205
2912.29295	0.86466
2910.23915	0.86776
2908.18534	0.87133
2906.13154	0.87509
2904.07774	0.87855
2902.02393	0.88152
2899.97013	0.88448
2897.91633	0.88786
2895.86252	0.89110
2893.80872	0.89364
2891.75492	0.89545
2889.70112	0.89687
2887.64731	0.89844
2885.59351	0.90009
2883.53971	0.90138
2881.48590	0.90256
2879.43210	0.90380
2877.37830	0.90461
2875.32449	0.90522
2873.27069	0.90611
2871.21689	0.90689
2869.16308	0.90730
2867.10928	0.90740
2865.05548	0.90694
2863.00167	0.90579
2860.94787	0.90426
2858.89407	0.90277
2856.84026	0.90117
2854.78646	0.89904
2852.73266	0.89653
2850.67885	0.89439
2848.62505	0.89363
2846.57125	0.89451
2844.51744	0.89653
2842.46364	0.89937
2840.40984	0.90276
2838.35603	0.90601
2836.30223	0.90877
2834.24843	0.91115
2832.19463	0.91294
2830.14082	0.91412
2828.08702	0.91528
2826.03322	0.91640
2823.97941	0.91692
2821.92561	0.91722
2819.87181	0.91781
2817.81800	0.91830
2815.76420	0.91842
2813.71040	0.91851
2811.65659	0.91879
2809.60279	0.91910
2807.54899	0.91934
2805.49518	0.91941
2803.44138	0.91948
2801.38758	0.91995
2799.33377	0.92053
2797.27997	0.92073
2795.22617	0.92082
2793.17236	0.92108
2791.11856	0.92145
2789.06476	0.92183
2787.01095	0.92206
2784.95715	0.92204
2782.90335	0.92221
2780.84955	0.92263
2778.79574	0.92279
2776.74194	0.92280
2774.68814	0.92290
2772.63433	0.92291
2770.58053	0.92281
2768.52673	0.92279
2766.47292	0.92273
2764.41912	0.92270
2762.36532	0.92286
2760.31151	0.92308
2758.25771	0.92339
2756.20391	0.92385
2754.15010	0.92427
2752.09630	0.92450
2750.04250	0.92455
2747.98869	0.92442
2745.93489	0.92410
2743.88109	0.92385
2741.82728	0.92390
2739.77348	0.92412
2737.71968	0.92428
2735.66587	0.92437
2733.61207	0.92446
2731.55827	0.92449
2729.50446	0.92434
2727.45066	0.92423
2725.39686	0.92446
2723.34306	0.92467
2721.28925	0.92463
2719.23545	0.92471
2717.18165	0.92491
2715.12784	0.92498
2713.07404	0.92492
2711.02024	0.92467
2708.96643	0.92449
2706.91263	0.92460
2704.85883	0.92481
2702.80502	0.92489
2700.75122	0.92480
2698.69742	0.92481
2696.64361	0.92504
2694.58981	0.92514
2692.53601	0.92496
2690.48220	0.92466
2688.42840	0.92447
2686.37460	0.92460
2684.32079	0.92512
2682.26699	0.92565
2680.21319	0.92569
2678.15938	0.92542
2676.10558	0.92536
2674.05178	0.92563
2671.99797	0.92585
2669.94417	0.92586
2667.89037	0.92596
2665.83657	0.92615
2663.78276	0.92613
2661.72896	0.92579
2659.67516	0.92528
2657.62135	0.92517
2655.56755	0.92548
2653.51375	0.92558
2651.45994	0.92553
2649.40614	0.92577
2647.35234	0.92604
2645.29853	0.92615
2643.24473	0.92628
2641.19093	0.92614
2639.13712	0.92560
2637.08332	0.92508
2635.02952	0.92497
2632.97571	0.92548
2630.92191	0.92624
2628.86811	0.92631
2626.81430	0.92589
2624.76050	0.92619
2622.70670	0.92695
2620.65289	0.92689
2618.59909	0.92626
2616.54529	0.92609
2614.49149	0.92654
2612.43768	0.92748
2610.38388	0.92789
2608.33008	0.92733
2606.27627	0.92698
2604.22247	0.92707
2602.16867	0.92694
2600.11486	0.92670
2598.06106	0.92687
2596.00726	0.92751
2593.95345	0.92803
2591.89965	0.92814
2589.84585	0.92801
2587.79204	0.92791
2585.73824	0.92798
2583.68444	0.92805
2581.63063	0.92813
2579.57683	0.92848
2577.52303	0.92912
2575.46922	0.92954
2573.41542	0.92929
2571.36162	0.92914
2569.30781	0.92944
2567.25401	0.92938
2565.20021	0.92892
2563.14640	0.92895
2561.09260	0.92945
2559.03880	0.92950
2556.98500	0.92905
2554.93119	0.92892
2552.87739	0.92947
2550.82359	0.93011
2548.76978	0.93030
2546.71598	0.93029
2544.66218	0.93019
2542.60837	0.92992
2540.55457	0.92970
2538.50077	0.92996
2536.44696	0.93073
2534.39316	0.93104
2532.33936	0.93055
2530.28555	0.93014
2528.23175	0.92991
2526.17795	0.92941
2524.12414	0.92911
2522.07034	0.92963
2520.01654	0.93028
2517.96273	0.92997
2515.90893	0.92905
2513.85513	0.92857
2511.80132	0.92896
2509.74752	0.92980
2507.69372	0.93021
2505.63992	0.93007
2503.58611	0.92979
2501.53231	0.92960
2499.47851	0.92964
2497.42470	0.92992
2495.37090	0.93031
2493.31710	0.93060
2491.26329	0.93049
2489.20949	0.93022
2487.15569	0.92964
2485.10188	0.92865
2483.04808	0.92868
2480.99428	0.92977
2478.94047	0.93038
2476.88667	0.93026
2474.83287	0.92977
2472.77906	0.92952
2470.72526	0.92988
2468.67146	0.93013
2466.61765	0.93013
2464.56385	0.93049
2462.51005	0.93088
2460.45624	0.93119
2458.40244	0.93165
2456.34864	0.93183
2454.29483	0.93145
2452.24103	0.93097
2450.18723	0.93117
2448.13343	0.93159
2446.07962	0.93164
2444.02582	0.93169
2441.97202	0.93157
2439.91821	0.93137
2437.86441	0.93137
2435.81061	0.93134
2433.75680	0.93136
2431.70300	0.93142
2429.64920	0.93120
2427.59539	0.93072
2425.54159	0.93050
2423.48779	0.93065
2421.43398	0.93099
2419.38018	0.93139
2417.32638	0.93112
2415.27257	0.93045
2413.21877	0.93062
2411.16497	0.93158
2409.11116	0.93236
2407.05736	0.93275
2405.00356	0.93288
2402.94975	0.93234
2400.89595	0.93145
2398.84215	0.93096
2396.78834	0.93087
2394.73454	0.93120
2392.68074	0.93171
2390.62694	0.93203
2388.57313	0.93223
2386.51933	0.93254
2384.46553	0.93258
2382.41172	0.93229
2380.35792	0.93240
2378.30412	0.93282
2376.25031	0.93296
2374.19651	0.93282
2372.14271	0.93280
2370.08890	0.93337
2368.03510	0.93426
2365.98130	0.93442
2363.92749	0.93392
2361.87369	0.93293
2359.81989	0.93162
2357.76608	0.93124
2355.71228	0.93123
2353.65848	0.93079
2351.60467	0.93047
2349.55087	0.93063
2347.49707	0.93091
2345.44326	0.93059
2343.38946	0.92975
2341.33566	0.92940
2339.28186	0.92975
2337.22805	0.93060
2335.17425	0.93122
2333.12045	0.93097
2331.06664	0.93109
2329.01284	0.93210
2326.95904	0.93208
2324.90523	0.93101
2322.85143	0.93059
2320.79763	0.93051
2318.74382	0.93033
2316.69002	0.93074
2314.63622	0.93116
2312.58241	0.93105
2310.52861	0.93092
2308.47481	0.93081
2306.42100	0.93061
2304.36720	0.93071
2302.31340	0.93139
2300.25959	0.93230
2298.20579	0.93257
2296.15199	0.93204
2294.09818	0.93133
2292.04438	0.93085
2289.99058	0.93069
2287.93677	0.93091
2285.88297	0.93133
2283.82917	0.93166
2281.77537	0.93213
2279.72156	0.93224
2277.66776	0.93202
2275.61396	0.93264
2273.56015	0.93325
2271.50635	0.93279
2269.45255	0.93250
2267.39874	0.93294
2265.34494	0.93359
2263.29114	0.93377
2261.23733	0.93317
2259.18353	0.93313
2257.12973	0.93393
2255.07592	0.93368
2253.02212	0.93277
2250.96832	0.93274
2248.91451	0.93291
2246.86071	0.93364
2244.80691	0.93477
2242.75310	0.93456
2240.69930	0.93320
2238.64550	0.93243
2236.59169	0.93266
2234.53789	0.93248
2232.48409	0.93221
2230.43029	0.93310
2228.37648	0.93411
2226.32268	0.93368
2224.26888	0.93251
2222.21507	0.93156
2220.16127	0.93099
2218.10747	0.93122
2216.05366	0.93163
2213.99986	0.93230
2211.94606	0.93379
2209.89225	0.93419
2207.83845	0.93388
2205.78465	0.93544
2203.73084	0.93665
2201.67704	0.93617
2199.62324	0.93622
2197.56943	0.93681
2195.51563	0.93717
2193.46183	0.93676
2191.40802	0.93638
2189.35422	0.93729
2187.30042	0.93798
2185.24661	0.93653
2183.19281	0.93435
2181.13901	0.93435
2179.08520	0.93627
2177.03140	0.93830
2174.97760	0.93889
2172.92380	0.93633
2170.86999	0.93313
2168.81619	0.93276
2166.76239	0.93415
2164.70858	0.93599
2162.65478	0.93759
2160.60098	0.93875
2158.54717	0.94054
2156.49337	0.94174
2154.43957	0.94063
2152.38576	0.93826
2150.33196	0.93722
2148.27816	0.93766
2146.22435	0.93723
2144.17055	0.93658
2142.11675	0.93717
2140.06294	0.93782
2138.00914	0.93795
2135.95534	0.93856
2133.90153	0.93921
2131.84773	0.93861
2129.79393	0.93757
2127.74012	0.93652
2125.68632	0.93514
2123.63252	0.93385
2121.57871	0.93347
2119.52491	0.93446
2117.47111	0.93516
2115.41731	0.93501
2113.36350	0.93556
2111.30970	0.93625
2109.25590	0.93620
2107.20209	0.93676
2105.14829	0.93756
2103.09449	0.93678
2101.04068	0.93561
2098.98688	0.93595
2096.93308	0.93759
2094.87927	0.93922
2092.82547	0.93996
2090.77167	0.93898
2088.71786	0.93701
2086.66406	0.93662
2084.61026	0.93729
2082.55645	0.93672
2080.50265	0.93582
2078.44885	0.93592
2076.39504	0.93639
2074.34124	0.93694
2072.28744	0.93733
2070.23363	0.93697
2068.17983	0.93651
2066.12603	0.93735
2064.07223	0.93879
2062.01842	0.93893
2059.96462	0.93804
2057.91082	0.93771
2055.85701	0.93873
2053.80321	0.94007
2051.74941	0.94031
2049.69560	0.93983
2047.64180	0.93959
2045.58800	0.93986
2043.53419	0.94105
2041.48039	0.94113
2039.42659	0.93837
2037.37278	0.93610
2035.31898	0.93596
2033.26518	0.93650
2031.21137	0.93772
2029.15757	0.93896
2027.10377	0.93935
2025.04996	0.93979
2022.99616	0.94039
2020.94236	0.94138
2018.88855	0.94291
2016.83475	0.94290
2014.78095	0.94224
2012.72714	0.94356
2010.67334	0.94435
2008.61954	0.94315
2006.56574	0.94261
2004.51193	0.94229
2002.45813	0.94138
2000.40433	0.94080
1998.35052	0.94019
1996.29672	0.93976
1994.24292	0.93945
1992.18911	0.93908
1990.13531	0.94004
1988.08151	0.94096
1986.02770	0.93865
1983.97390	0.93472
1981.92010	0.93326
1979.86629	0.93471
1977.81249	0.93786
1975.75869	0.94112
1973.70488	0.94171
1971.65108	0.94117
1969.59728	0.94237
1967.54347	0.94335
1965.48967	0.94222
1963.43587	0.94071
1961.38206	0.94036
1959.32826	0.94086
1957.27446	0.94077
1955.22066	0.93910
1953.16685	0.93759
1951.11305	0.93731
1949.05925	0.93661
1947.00544	0.93527
1944.95164	0.93474
1942.89784	0.93531
1940.84403	0.93512
1938.79023	0.93330
1936.73643	0.93206
1934.68262	0.93274
1932.62882	0.93457
1930.57502	0.93673
1928.52121	0.93830
1926.46741	0.93880
1924.41361	0.93881
1922.35980	0.93865
1920.30600	0.93858
1918.25220	0.93864
1916.19839	0.93827
1914.14459	0.93755
1912.09079	0.93702
1910.03698	0.93724
1907.98318	0.93808
1905.92938	0.93855
1903.87557	0.93834
1901.82177	0.93818
1899.76797	0.93834
1897.71417	0.93777
1895.66036	0.93620
1893.60656	0.93504
1891.55276	0.93543
1889.49895	0.93635
1887.44515	0.93630
1885.39135	0.93586
1883.33754	0.93528
1881.28374	0.93453
1879.22994	0.93417
1877.17613	0.93385
1875.12233	0.93379
1873.06853	0.93434
1871.01472	0.93475
1868.96092	0.93488
1866.90712	0.93470
1864.85331	0.93441
1862.79951	0.93472
1860.74571	0.93551
1858.69190	0.93609
1856.63810	0.93622
1854.58430	0.93625
1852.53049	0.93683
1850.47669	0.93750
1848.42289	0.93765
1846.36908	0.93783
1844.31528	0.93808
1842.26148	0.93801
1840.20768	0.93785
1838.15387	0.93774
1836.10007	0.93788
1834.04627	0.93807
1831.99246	0.93830
1829.93866	0.93844
1827.88486	0.93822
1825.83105	0.93787
1823.77725	0.93704
1821.72345	0.93615
1819.66964	0.93595
1817.61584	0.93622
1815.56204	0.93633
1813.50823	0.93602
1811.45443	0.93541
1809.40063	0.93457
1807.34682	0.93382
1805.29302	0.93356
1803.23922	0.93360
1801.18541	0.93349
1799.13161	0.93346
1797.07781	0.93381
1795.02400	0.93457
1792.97020	0.93548
1790.91640	0.93603
1788.86260	0.93630
1786.80879	0.93653
1784.75499	0.93674
1782.70119	0.93698
1780.64738	0.93713
1778.59358	0.93703
1776.53978	0.93693
1774.48597	0.93681
1772.43217	0.93667
1770.37837	0.93695
1768.32456	0.93727
1766.27076	0.93733
1764.21696	0.93731
1762.16315	0.93710
1760.10935	0.93666
1758.05555	0.93592
1756.00174	0.93490
1753.94794	0.93399
1751.89414	0.93333
1749.84033	0.93249
1747.78653	0.93135
1745.73273	0.93060
1743.67892	0.93029
1741.62512	0.92997
1739.57132	0.92989
1737.51751	0.93045
1735.46371	0.93135
1733.40991	0.93206
1731.35611	0.93203
1729.30230	0.93174
1727.24850	0.93168
1725.19470	0.93186
1723.14089	0.93206
1721.08709	0.93228
1719.03329	0.93236
1716.97948	0.93199
1714.92568	0.93175
1712.87188	0.93212
1710.81807	0.93275
1708.76427	0.93314
1706.71047	0.93285
1704.65666	0.93229
1702.60286	0.93208
1700.54906	0.93186
1698.49525	0.93126
1696.44145	0.93063
1694.38765	0.92998
1692.33384	0.92940
1690.28004	0.92874
1688.22624	0.92780
1686.17243	0.92674
1684.11863	0.92526
1682.06483	0.92408
1680.01103	0.92369
1677.95722	0.92327
1675.90342	0.92229
1673.84962	0.92104
1671.79581	0.92032
1669.74201	0.91970
1667.68821	0.91880
1665.63440	0.91817
1663.58060	0.91773
1661.52680	0.91735
1659.47299	0.91710
1657.41919	0.91712
1655.36539	0.91769
1653.31158	0.91836
1651.25778	0.91767
1649.20398	0.91715
1647.15017	0.91733
1645.09637	0.91772
1643.04257	0.91773
1640.98876	0.91751
1638.93496	0.91744
1636.88116	0.91770
1634.82735	0.91809
1632.77355	0.91820
1630.71975	0.91826
1628.66594	0.91843
1626.61214	0.91866
1624.55834	0.91898
1622.50454	0.91940
1620.45073	0.91962
1618.39693	0.91971
1616.34313	0.91973
1614.28932	0.91928
1612.23552	0.91823
1610.18172	0.91596
1608.12791	0.91091
1606.07411	0.90229
1604.02031	0.89179
1601.96650	0.88358
1599.91270	0.88241
1597.85890	0.88836
1595.80509	0.89721
1593.75129	0.90476
1591.69749	0.90945
1589.64368	0.91188
1587.58988	0.91216
1585.53608	0.91037
1583.48227	0.90866
1581.42847	0.90987
1579.37467	0.91385
1577.32086	0.91836
1575.26706	0.92124
1573.21326	0.92241
1571.15945	0.92384
1569.10565	0.92581
1567.05185	0.92676
1564.99805	0.92678
1562.94424	0.92674
1560.89044	0.92672
1558.83664	0.92683
1556.78283	0.92701
1554.72903	0.92694
1552.67523	0.92655
1550.62142	0.92583
1548.56762	0.92514
1546.51382	0.92500
1544.46001	0.92524
1542.40621	0.92530
1540.35241	0.92506
1538.29860	0.92547
1536.24480	0.92630
1534.19100	0.92732
1532.13719	0.92840
1530.08339	0.92914
1528.02959	0.92995
1525.97578	0.93092
1523.92198	0.93152
1521.86818	0.93165
1519.81437	0.93153
1517.76057	0.93155
1515.70677	0.93216
1513.65297	0.93289
1511.59916	0.93327
1509.54536	0.93367
1507.49156	0.93381
1505.43775	0.93253
1503.38395	0.93075
1501.33015	0.92741
1499.27634	0.91772
1497.22254	0.89100
1495.16874	0.85032
1493.11493	0.82394
1491.06113	0.82682
1489.00733	0.85647
1486.95352	0.88475
1484.89972	0.89983
1482.84592	0.90852
1480.79211	0.91411
1478.73831	0.91747
1476.68451	0.91971
1474.63070	0.92142
1472.57690	0.92207
1470.52310	0.92167
1468.46929	0.92124
1466.41549	0.92095
1464.36169	0.92048
1462.30788	0.91939
1460.25408	0.91656
1458.20028	0.90373
1456.14648	0.86698
1454.09267	0.83104
1452.03887	0.81430
1449.98507	0.81731
1447.93126	0.83331
1445.87746	0.84942
1443.82366	0.86150
1441.76985	0.87183
1439.71605	0.88054
1437.66225	0.88839
1435.60844	0.89599
1433.55464	0.90153
1431.50084	0.90594
1429.44703	0.90991
1427.39323	0.91265
1425.33943	0.91427
1423.28562	0.91549
1421.23182	0.91670
1419.17802	0.91815
1417.12421	0.91952
1415.07041	0.92034
1413.01661	0.92078
1410.96280	0.92112
1408.90900	0.92174
1406.85520	0.92276
1404.80139	0.92377
1402.74759	0.92436
1400.69379	0.92488
1398.63999	0.92547
1396.58618	0.92568
1394.53238	0.92512
1392.47858	0.92422
1390.42477	0.92350
1388.37097	0.92251
1386.31717	0.92095
1384.26336	0.91930
1382.20956	0.91754
1380.15576	0.91585
1378.10195	0.91470
1376.04815	0.91394
1373.99435	0.91340
1371.94054	0.91316
1369.88674	0.91306
1367.83294	0.91320
1365.77913	0.91362
1363.72533	0.91420
1361.67153	0.91506
1359.61772	0.91617
1357.56392	0.91712
1355.51012	0.91764
1353.45631	0.91788
1351.40251	0.91812
1349.34871	0.91867
1347.29491	0.91959
1345.24110	0.92050
1343.18730	0.92126
1341.13350	0.92199
1339.07969	0.92231
1337.02589	0.92214
1334.97209	0.92193
1332.91828	0.92152
1330.86448	0.92082
1328.81068	0.92015
1326.75687	0.91978
1324.70307	0.91986
1322.64927	0.92028
1320.59546	0.92080
1318.54166	0.92106
1316.48786	0.92079
1314.43405	0.92032
1312.38025	0.92028
1310.32645	0.92077
1308.27264	0.92124
1306.21884	0.92161
1304.16504	0.92237
1302.11123	0.92320
1300.05743	0.92354
1298.00363	0.92371
1295.94982	0.92411
1293.89602	0.92441
1291.84222	0.92453
1289.78842	0.92477
1287.73461	0.92500
1285.68081	0.92486
1283.62701	0.92424
1281.57320	0.92349
1279.51940	0.92324
1277.46560	0.92358
1275.41179	0.92387
1273.35799	0.92382
1271.30419	0.92379
1269.25038	0.92386
1267.19658	0.92397
1265.14278	0.92418
1263.08897	0.92460
1261.03517	0.92514
1258.98137	0.92549
1256.92756	0.92552
1254.87376	0.92551
1252.81996	0.92561
1250.76615	0.92562
1248.71235	0.92549
1246.65855	0.92540
1244.60474	0.92549
1242.55094	0.92564
1240.49714	0.92568
1238.44334	0.92570
1236.38953	0.92570
1234.33573	0.92551
1232.28193	0.92522
1230.22812	0.92499
1228.17432	0.92460
1226.12052	0.92402
1224.06671	0.92344
1222.01291	0.92257
1219.95911	0.92135
1217.90530	0.92051
1215.85150	0.91994
1213.79770	0.91888
1211.74389	0.91742
1209.69009	0.91575
1207.63629	0.91377
1205.58248	0.91188
1203.52868	0.91002
1201.47488	0.90758
1199.42107	0.90477
1197.36727	0.90213
1195.31347	0.89968
1193.25966	0.89717
1191.20586	0.89464
1189.15206	0.89242
1187.09825	0.88987
1185.04445	0.88597
1182.99065	0.88141
1180.93685	0.87807
1178.88304	0.87671
1176.82924	0.87643
1174.77544	0.87606
1172.72163	0.87515
1170.66783	0.87379
1168.61403	0.87220
1166.56022	0.87029
1164.50642	0.86835
1162.45262	0.86676
1160.39881	0.86485
1158.34501	0.86154
1156.29121	0.85732
1154.23740	0.85441
1152.18360	0.85406
1150.12980	0.85528
1148.07599	0.85638
1146.02219	0.85671
1143.96839	0.85659
1141.91458	0.85618
1139.86078	0.85567
1137.80698	0.85498
1135.75317	0.85376
1133.69937	0.85230
1131.64557	0.85075
1129.59176	0.84890
1127.53796	0.84650
1125.48416	0.84304
1123.43036	0.83873
1121.37655	0.83421
1119.32275	0.82951
1117.26895	0.82445
1115.21514	0.81924
1113.16134	0.81442
1111.10754	0.81019
1109.05373	0.80641
1106.99993	0.80326
1104.94613	0.80082
1102.89232	0.79868
1100.83852	0.79644
1098.78472	0.79412
1096.73091	0.79189
1094.67711	0.78990
1092.62331	0.78849
1090.56950	0.78747
1088.51570	0.78631
1086.46190	0.78510
1084.40809	0.78380
1082.35429	0.78174
1080.30049	0.77884
1078.24668	0.77597
1076.19288	0.77319
1074.13908	0.76959
1072.08528	0.76524
1070.03147	0.76108
1067.97767	0.75773
1065.92387	0.75541
1063.87006	0.75389
1061.81626	0.75254
1059.76246	0.75064
1057.70865	0.74820
1055.65485	0.74575
1053.60105	0.74274
1051.54724	0.73874
1049.49344	0.73426
1047.43964	0.72930
1045.38583	0.72371
1043.33203	0.71776
1041.27823	0.71144
1039.22442	0.70438
1037.17062	0.69632
1035.11682	0.68695
1033.06301	0.67599
1031.00921	0.66453
1028.95541	0.65497
1026.90160	0.64997
1024.84780	0.65022
1022.79400	0.65309
1020.74019	0.65578
1018.68639	0.65746
1016.63259	0.65829
1014.57879	0.65883
1012.52498	0.65916
1010.47118	0.65938
1008.41738	0.65977
1006.36357	0.66024
1004.30977	0.66098
1002.25597	0.66309
1000.20216	0.66724
998.14836	0.67278
996.09456	0.67868
994.04075	0.68432
991.98695	0.68966
989.93315	0.69503
987.87934	0.70083
985.82554	0.70710
983.77174	0.71336
981.71793	0.71983
979.66413	0.72764
977.61033	0.73688
975.55652	0.74652
973.50272	0.75569
971.44892	0.76402
969.39511	0.77102
967.34131	0.77660
965.28751	0.78179
963.23371	0.78761
961.17990	0.79407
959.12610	0.80057
957.07230	0.80659
955.01849	0.81169
952.96469	0.81576
950.91089	0.81910
948.85708	0.82167
946.80328	0.82352
944.74948	0.82523
942.69567	0.82707
940.64187	0.82914
938.58807	0.83138
936.53426	0.83392
934.48046	0.83692
932.42666	0.83990
930.37285	0.84251
928.31905	0.84460
926.26525	0.84567
924.21144	0.84586
922.15764	0.84588
920.10384	0.84533
918.05003	0.84342
915.99623	0.84032
913.94243	0.83660
911.88862	0.83274
909.83482	0.82928
907.78102	0.82744
905.72722	0.82897
903.67341	0.83423
901.61961	0.84193
899.56581	0.85078
897.51200	0.85926
895.45820	0.86611
893.40440	0.87139
891.35059	0.87549
889.29679	0.87869
887.24299	0.88129
885.18918	0.88335
883.13538	0.88475
881.08158	0.88576
879.02777	0.88688
876.97397	0.88824
874.92017	0.88994
872.86636	0.89233
870.81256	0.89486
868.75876	0.89645
866.70495	0.89772
864.65115	0.89966
862.59735	0.90130
860.54354	0.90189
858.48974	0.90245
856.43594	0.90329
854.38213	0.90416
852.32833	0.90483
850.27453	0.90462
848.22073	0.90280
846.16692	0.89984
844.11312	0.89754
842.05932	0.89668
840.00551	0.89662
837.95171	0.89710
835.89791	0.89827
833.84410	0.89981
831.79030	0.90124
829.73650	0.90195
827.68269	0.90238
825.62889	0.90344
823.57509	0.90447
821.52128	0.90517
819.46748	0.90601
817.41368	0.90714
815.35987	0.90810
813.30607	0.90795
811.25227	0.90659
809.19846	0.90429
807.14466	0.90142
805.09086	0.89858
803.03705	0.89569
800.98325	0.89262
798.92945	0.89055
796.87565	0.89008
794.82184	0.89030
792.76804	0.89083
790.71424	0.89110
788.66043	0.88967
786.60663	0.88651
784.55283	0.88317
782.49902	0.87998
780.44522	0.87554
778.39142	0.86912
776.33761	0.86102
774.28381	0.85088
772.23001	0.83827
770.17620	0.82381
768.12240	0.80847
766.06860	0.79252
764.01479	0.77562
761.96099	0.75832
759.90719	0.74245
757.85338	0.73004
755.79958	0.72291
753.74578	0.72113
751.69197	0.72177
749.63817	0.72238
747.58437	0.72538
745.53056	0.73595
743.47676	0.75535
741.42296	0.77912
739.36916	0.80140
737.31535	0.81983
735.26155	0.83666
733.20775	0.85295
731.15394	0.86619
729.10014	0.87482
727.04634	0.87998
724.99253	0.88392
722.93873	0.88756
720.88493	0.89060
718.83112	0.89262
716.77732	0.89277
714.72352	0.89008
712.66971	0.88311
710.61591	0.86766
708.56211	0.83691
706.50830	0.78534
704.45450	0.71323
702.40070	0.62606
700.34689	0.53025
698.29309	0.43813
696.23929	0.37993
694.18548	0.39173
692.13168	0.47149
690.07788	0.57293
688.02408	0.65490
685.97027	0.70888
683.91647	0.74254
681.86267	0.76335
679.80886	0.77709
677.75506	0.78810
675.70126	0.79713
673.64745	0.80351
671.59365	0.80801
669.53985	0.81243
667.48604	0.81820
665.43224	0.82221
663.37844	0.82426
661.32463	0.82642
659.27083	0.82908
657.21703	0.83164
655.16322	0.83336
653.10942	0.83424
651.05562	0.83463
649.00181	0.83549
646.94801	0.83726
644.89421	0.83894
642.84040	0.83992
640.78660	0.84054
638.73280	0.84098
636.67899	0.84100
634.62519	0.84121
632.57139	0.84186
630.51759	0.84185
628.46378	0.84071
626.40998	0.83938
624.35618	0.83773
622.30237	0.83528
620.24857	0.83353
618.19477	0.83365
616.14096	0.83468
614.08716	0.83474
612.03336	0.83338
609.97955	0.83144
607.92575	0.83006
605.87195	0.82890
603.81814	0.82677
601.76434	0.82377
599.71054	0.82092
597.65673	0.82006
595.60293	0.82025
593.54913	0.81864
591.49532	0.81563
589.44152	0.81293
587.38772	0.81050
585.33391	0.80808
583.28011	0.80617
581.22631	0.80550
579.17250	0.80446
577.11870	0.79942
575.06490	0.79221
573.01110	0.78704
570.95729	0.78244
568.90349	0.77700
566.84969	0.77150
564.79588	0.76489
562.74208	0.75693
560.68828	0.74966
558.63447	0.74290
556.58067	0.73511
554.52687	0.72763
552.47306	0.72009
550.41926	0.71026
548.36546	0.69919
546.31165	0.68787
544.25785	0.67468
542.20405	0.65909
540.15024	0.64438
538.09644	0.63477
536.04264	0.63206
533.98883	0.63682
531.93503	0.64794
529.88123	0.66065
527.82742	0.67150
525.77362	0.68181
523.71982	0.69166
521.66602	0.70101
519.61221	0.71107
517.55841	0.71978
515.50461	0.72538
513.45080	0.73011
511.39700	0.73582
509.34320	0.74226
507.28939	0.74885
505.23559	0.75416
503.18179	0.75617
501.12798	0.75566
499.07418	0.75584
497.02038	0.75691
494.96657	0.75611
492.91277	0.75324
490.85897	0.74808
488.80516	0.73887
486.75136	0.72838
484.69756	0.71938
482.64375	0.70979
480.58995	0.69823
478.53615	0.68589
476.48234	0.67389
474.42854	0.66366
472.37474	0.65620
470.32093	0.65202
468.26713	0.65156
466.21333	0.65398
464.15953	0.65820
462.10572	0.66378
460.05192	0.67017
457.99812	0.67671
455.94431	0.68330
453.89051	0.69221
451.83671	0.70300
449.78290	0.71006
447.72910	0.71185
445.67530	0.71258
443.62149	0.71421
441.56769	0.71537
439.51389	0.71693
437.46008	0.71679
435.40628	0.71125
433.35248	0.70516
431.29867	0.70440
429.24487	0.70806
427.19107	0.71159
425.13726	0.71411
423.08346	0.71781
421.02966	0.72075
418.97585	0.72149
416.92205	0.72155
414.86825	0.72217
412.81445	0.72879
410.76064	0.74259
408.70684	0.75200
406.65304	0.75260
404.59923	0.75257
402.54543	0.75495
400.49163	0.75653
398.43782	0.75501
