3996.71440	0.99390
3994.66059	0.99417
3992.60678	0.99400
3990.55297	0.99365
3988.49916	0.99345
3986.44535	0.99336
3984.39154	0.99340
3982.33773	0.99337
3980.28391	0.99313
3978.23010	0.99299
3976.17629	0.99310
3974.12248	0.99339
3972.06867	0.99380
3970.01486	0.99409
3967.96105	0.99388
3965.90724	0.99339
3963.85343	0.99312
3961.79962	0.99324
3959.74581	0.99357
3957.69200	0.99380
3955.63819	0.99382
3953.58438	0.99366
3951.53057	0.99346
3949.47676	0.99352
3947.42295	0.99382
3945.36914	0.99396
3943.31533	0.99383
3941.26152	0.99376
3939.20771	0.99380
3937.15390	0.99369
3935.10009	0.99347
3933.04628	0.99346
3930.99247	0.99363
3928.93866	0.99350
3926.88485	0.99313
3924.83104	0.99317
3922.77723	0.99368
3920.72342	0.99386
3918.66961	0.99361
3916.61580	0.99345
3914.56199	0.99326
3912.50818	0.99296
3910.45437	0.99282
3908.40056	0.99288
3906.34675	0.99306
3904.29294	0.99306
3902.23913	0.99272
3900.18532	0.99278
3898.13151	0.99325
3896.07770	0.99350
3894.02389	0.99342
3891.97008	0.99300
3889.91627	0.99280
3887.86246	0.99307
3885.80865	0.99322
3883.75484	0.99327
3881.70103	0.99341
3879.64722	0.99320
3877.59341	0.99290
3875.53960	0.99303
3873.48579	0.99341
3871.43198	0.99372
3869.37817	0.99378
3867.32436	0.99358
3865.27055	0.99325
3863.21674	0.99296
3861.16293	0.99302
3859.10912	0.99346
3857.05531	0.99389
3855.00150	0.99392
3852.94769	0.99328
3850.89388	0.99258
3848.84007	0.99251
3846.78626	0.99283
3844.73245	0.99284
3842.67864	0.99242
3840.62483	0.99243
3838.57102	0.99304
3836.51721	0.99331
3834.46340	0.99294
3832.40959	0.99244
3830.35578	0.99205
3828.30197	0.99195
3826.24816	0.99215
3824.19435	0.99229
3822.14054	0.99225
3820.08673	0.99211
3818.03292	0.99213
3815.97911	0.99219
3813.92530	0.99227
3811.87149	0.99246
3809.81768	0.99246
3807.76387	0.99218
3805.71006	0.99199
3803.65625	0.99179
3801.60244	0.99154
3799.54863	0.99152
3797.49482	0.99123
3795.44101	0.99068
3793.38720	0.99066
3791.33339	0.99096
3789.27958	0.99112
3787.22577	0.99131
3785.17196	0.99147
3783.11815	0.99149
3781.06434	0.99135
3779.01053	0.99110
3776.95672	0.99089
3774.90291	0.99085
3772.84910	0.99100
3770.79529	0.99100
3768.74148	0.99065
3766.68767	0.99029
3764.63386	0.99003
3762.58005	0.98987
3760.52624	0.98987
3758.47243	0.98978
3756.41862	0.98963
3754.36481	0.98965
3752.31100	0.98972
3750.25719	0.98924
3748.20338	0.98847
3746.14957	0.98824
3744.09576	0.98806
3742.04195	0.98753
3739.98814	0.98728
3737.93433	0.98725
3735.88052	0.98716
3733.82671	0.98700
3731.77290	0.98682
3729.71909	0.98663
3727.66528	0.98600
3725.61147	0.98521
3723.55766	0.98505
3721.50385	0.98519
3719.45004	0.98489
3717.39623	0.98413
3715.34242	0.98326
3713.28861	0.98232
3711.23480	0.98121
3709.18099	0.98029
3707.12718	0.97986
3705.07337	0.97943
3703.01956	0.97839
3700.96575	0.97700
3698.91194	0.97591
3696.85813	0.97458
3694.80432	0.97295
3692.75051	0.97157
3690.69670	0.96986
3688.64289	0.96759
3686.58907	0.96556
3684.53526	0.96378
3682.48145	0.96177
3680.42764	0.95955
3678.37383	0.95724
3676.32002	0.95427
3674.26621	0.95116
3672.21240	0.94885
3670.15859	0.94578
3668.10478	0.94237
3666.05097	0.93965
3663.99716	0.93665
3661.94335	0.93333
3659.88954	0.93030
3657.83573	0.92751
3655.78192	0.92436
3653.72811	0.92144
3651.67430	0.91872
3649.62049	0.91468
3647.56668	0.90990
3645.51287	0.90660
3643.45906	0.90440
3641.40525	0.90210
3639.35144	0.89938
3637.29763	0.89664
3635.24382	0.89375
3633.19001	0.89062
3631.13620	0.88765
3629.08239	0.88406
3627.02858	0.88060
3624.97477	0.87855
3622.92096	0.87661
3620.86715	0.87409
3618.81334	0.87091
3616.75953	0.86814
3614.70572	0.86601
3612.65191	0.86372
3610.59810	0.86128
3608.54429	0.85829
3606.49048	0.85494
3604.43667	0.85247
3602.38286	0.85046
3600.32905	0.84821
3598.27524	0.84595
3596.22143	0.84353
3594.16762	0.84070
3592.11381	0.83803
3590.06000	0.83588
3588.00619	0.83344
3585.95238	0.83033
3583.89857	0.82737
3581.84476	0.82491
3579.79095	0.82269
3577.73714	0.82036
3575.68333	0.81773
3573.62952	0.81489
3571.57571	0.81235
3569.52190	0.81000
3567.46809	0.80664
3565.41428	0.80284
3563.36047	0.80031
3561.30666	0.79817
3559.25285	0.79568
3557.19904	0.79294
3555.14523	0.79012
3553.09142	0.78723
3551.03761	0.78438
3548.98380	0.78174
3546.92999	0.77885
3544.87618	0.77550
3542.82237	0.77238
3540.76856	0.76994
3538.71475	0.76776
3536.66094	0.76502
3534.60713	0.76183
3532.55332	0.75907
3530.49951	0.75650
3528.44570	0.75350
3526.39189	0.75038
3524.33808	0.74748
3522.28427	0.74471
3520.23046	0.74220
3518.17665	0.73974
3516.12284	0.73698
3514.06903	0.73408
3512.01522	0.73116
3509.96141	0.72831
3507.90760	0.72586
3505.85379	0.72360
3503.79998	0.72084
3501.74617	0.71803
3499.69236	0.71558
3497.63855	0.71289
3495.58474	0.70992
3493.53093	0.70714
3491.47712	0.70460
3489.42331	0.70198
3487.36950	0.69902
3485.31569	0.69594
3483.26188	0.69318
3481.20807	0.69068
3479.15426	0.68822
3477.10045	0.68566
3475.04664	0.68287
3472.99283	0.68009
3470.93902	0.67753
3468.88521	0.67504
3466.83140	0.67267
3464.77759	0.67040
3462.72378	0.66785
3460.66997	0.66499
3458.61616	0.66220
3456.56235	0.65963
3454.50854	0.65690
3452.45473	0.65399
3450.40092	0.65143
3448.34711	0.64901
3446.29330	0.64623
3444.23949	0.64367
3442.18568	0.64155
3440.13187	0.63926
3438.07806	0.63670
3436.02425	0.63432
3433.97044	0.63233
3431.91663	0.63027
3429.86282	0.62773
3427.80901	0.62504
3425.75520	0.62273
3423.70139	0.62057
3421.64758	0.61824
3419.59377	0.61611
3417.53996	0.61434
3415.48615	0.61247
3413.43234	0.61026
3411.37853	0.60813
3409.32472	0.60636
3407.27091	0.60464
3405.21710	0.60281
3403.16329	0.60115
3401.10948	0.59956
3399.05567	0.59784
3397.00186	0.59607
3394.94805	0.59441
3392.89424	0.59281
3390.84042	0.59127
3388.78661	0.59005
3386.73280	0.58888
3384.67899	0.58743
3382.62518	0.58607
3380.57137	0.58503
3378.51756	0.58429
3376.46375	0.58377
3374.40994	0.58305
3372.35613	0.58219
3370.30232	0.58136
3368.24851	0.58044
3366.19470	0.57951
3364.14089	0.57886
3362.08708	0.57846
3360.03327	0.57790
3357.97946	0.57729
3355.92565	0.57692
3353.87184	0.57656
3351.81803	0.57636
3349.76422	0.57633
3347.71041	0.57601
3345.65660	0.57567
3343.60279	0.57565
3341.54898	0.57548
3339.49517	0.57511
3337.44136	0.57495
3335.38755	0.57501
3333.33374	0.57503
3331.27993	0.57520
3329.22612	0.57547
3327.17231	0.57549
3325.11850	0.57547
3323.06469	0.57573
3321.01088	0.57602
3318.95707	0.57622
3316.90326	0.57632
3314.84945	0.57644
3312.79564	0.57675
3310.74183	0.57699
3308.68802	0.57702
3306.63421	0.57706
3304.58040	0.57716
3302.52659	0.57723
3300.47278	0.57736
3298.41897	0.57759
3296.36516	0.57786
3294.31135	0.57807
3292.25754	0.57819
3290.20373	0.57827
3288.14992	0.57836
3286.09611	0.57860
3284.04230	0.57900
3281.98849	0.57914
3279.93468	0.57895
3277.88087	0.57898
3275.82706	0.57934
3273.77325	0.57992
3271.71944	0.58049
3269.66563	0.58069
3267.61182	0.58059
3265.55801	0.58058
3263.50420	0.58071
3261.45039	0.58090
3259.39658	0.58134
3257.34277	0.58200
3255.28896	0.58257
3253.23515	0.58303
3251.18134	0.58346
3249.12753	0.58394
3247.07372	0.58454
3245.01991	0.58507
3242.96610	0.58572
3240.91229	0.58653
3238.85848	0.58710
3236.80467	0.58776
3234.75086	0.58895
3232.69705	0.59047
3230.64324	0.59177
3228.58943	0.59264
3226.53562	0.59343
3224.48181	0.59456
3222.42800	0.59597
3220.37419	0.59741
3218.32038	0.59889
3216.26657	0.60042
3214.21276	0.60202
3212.15895	0.60376
3210.10514	0.60565
3208.05133	0.60767
3205.99752	0.60989
3203.94371	0.61210
3201.88990	0.61416
3199.83609	0.61624
3197.78228	0.61848
3195.72847	0.62082
3193.67466	0.62317
3191.62085	0.62549
3189.56704	0.62792
3187.51323	0.63063
3185.45942	0.63356
3183.40561	0.63645
3181.35180	0.63923
3179.29799	0.64200
3177.24418	0.64499
3175.19037	0.64830
3173.13656	0.65164
3171.08275	0.65488
3169.02894	0.65802
3166.97513	0.66127
3164.92132	0.66466
3162.86751	0.66795
3160.81370	0.67119
3158.75989	0.67454
3156.70608	0.67800
3154.65227	0.68158
3152.59846	0.68513
3150.54465	0.68851
3148.49084	0.69184
3146.43703	0.69528
3144.38322	0.69884
3142.32941	0.70251
3140.27560	0.70618
3138.22179	0.70982
3136.16798	0.71361
3134.11417	0.71743
3132.06036	0.72098
3130.00655	0.72439
3127.95274	0.72804
3125.89893	0.73195
3123.84512	0.73571
3121.79131	0.73905
3119.73750	0.74230
3117.68369	0.74588
3115.62988	0.74964
3113.57607	0.75325
3111.52226	0.75681
3109.46845	0.76024
3107.41464	0.76346
3105.36083	0.76685
3103.30702	0.77057
3101.25321	0.77426
3099.19940	0.77785
3097.14559	0.78146
3095.09177	0.78492
3093.03796	0.78819
3090.98415	0.79141
3088.93034	0.79458
3086.87653	0.79780
3084.82272	0.80117
3082.76891	0.80442
3080.71510	0.80760
3078.66129	0.81092
3076.60748	0.81395
3074.55367	0.81661
3072.49986	0.81935
3070.44605	0.82230
3068.39224	0.82536
3066.33843	0.82849
3064.28462	0.83151
3062.23081	0.83422
3060.17700	0.83687
3058.12319	0.83960
3056.06938	0.84224
3054.01557	0.84500
3051.96176	0.84797
3049.90795	0.85075
3047.85414	0.85322
3045.80033	0.85574
3043.74652	0.85835
3041.69271	0.86077
3039.63890	0.86306
3037.58509	0.86539
3035.53128	0.86778
3033.47747	0.87018
3031.42366	0.87248
3029.36985	0.87460
3027.31604	0.87663
3025.26223	0.87878
3023.20842	0.88102
3021.15461	0.88318
3019.10080	0.88531
3017.04699	0.88745
3014.99318	0.88948
3012.93937	0.89124
3010.88556	0.89279
3008.83175	0.89452
3006.77794	0.89649
3004.72413	0.89829
3002.67032	0.89988
3000.61651	0.90154
2998.56270	0.90313
2996.50889	0.90450
2994.45508	0.90600
2992.40127	0.90760
2990.34746	0.90881
2988.29365	0.90961
2986.23984	0.91056
2984.18603	0.91169
2982.13222	0.91262
2980.07841	0.91318
2978.02460	0.91329
2975.97079	0.91298
2973.91698	0.91226
2971.86317	0.91122
2969.80936	0.90984
2967.75555	0.90771
2965.70174	0.90476
2963.64793	0.90191
2961.59412	0.89993
2959.54031	0.89903
2957.48650	0.89906
2955.43269	0.89908
2953.37888	0.89840
2951.32507	0.89778
2949.27126	0.89859
2947.21745	0.90149
2945.16364	0.90628
2943.10983	0.91206
2941.05602	0.91720
2939.00221	0.92036
2936.94840	0.92133
2934.89459	0.92066
2932.84078	0.91896
2930.78697	0.91663
2928.73316	0.91397
2926.67935	0.91116
2924.62554	0.90834
2922.57173	0.90572
2920.51792	0.90369
2918.46411	0.90298
2916.41030	0.90422
2914.35649	0.90719
2912.30268	0.91102
2910.24887	0.91498
2908.19506	0.91870
2906.14125	0.92202
2904.08744	0.92507
2902.03363	0.92820
2899.97982	0.93151
2897.92601	0.93471
2895.87220	0.93740
2893.81839	0.93936
2891.76458	0.94052
2889.71077	0.94107
2887.65696	0.94142
2885.60315	0.94165
2883.54934	0.94153
2881.49553	0.94100
2879.44172	0.94030
2877.38791	0.93997
2875.33410	0.94041
2873.28029	0.94104
2871.22648	0.94122
2869.17267	0.94121
2867.11886	0.94167
2865.06505	0.94339
2863.01124	0.94706
2860.95743	0.95193
2858.90362	0.95628
2856.84981	0.95914
2854.79600	0.96067
2852.74219	0.96136
2850.68838	0.96140
2848.63457	0.96056
2846.58076	0.95875
2844.52695	0.95633
2842.47314	0.95359
2840.41933	0.95098
2838.36552	0.94944
2836.31171	0.94986
2834.25790	0.95267
2832.20409	0.95706
2830.15028	0.96142
2828.09647	0.96486
2826.04266	0.96737
2823.98885	0.96913
2821.93504	0.97046
2819.88123	0.97152
2817.82742	0.97240
2815.77361	0.97326
2813.71980	0.97396
2811.66599	0.97446
2809.61218	0.97507
2807.55837	0.97577
2805.50456	0.97647
2803.45075	0.97706
2801.39693	0.97731
2799.34312	0.97755
2797.28931	0.97795
2795.23550	0.97836
2793.18169	0.97883
2791.12788	0.97922
2789.07407	0.97964
2787.02026	0.98025
2784.96645	0.98071
2782.91264	0.98081
2780.85883	0.98093
2778.80502	0.98125
2776.75121	0.98155
2774.69740	0.98174
2772.64359	0.98198
2770.58978	0.98232
2768.53597	0.98265
2766.48216	0.98288
2764.42835	0.98316
2762.37454	0.98338
2760.32073	0.98332
2758.26692	0.98327
2756.21311	0.98354
2754.15930	0.98386
2752.10549	0.98402
2750.05168	0.98402
2747.99787	0.98401
2745.94406	0.98415
2743.89025	0.98444
2741.83644	0.98474
2739.78263	0.98500
2737.72882	0.98512
2735.67501	0.98505
2733.62120	0.98494
2731.56739	0.98486
2729.51358	0.98465
2727.45977	0.98449
2725.40596	0.98458
2723.35215	0.98487
2721.29834	0.98517
2719.24453	0.98533
2717.19072	0.98554
2715.13691	0.98587
2713.08310	0.98608
2711.02929	0.98615
2708.97548	0.98626
2706.92167	0.98642
2704.86786	0.98659
2702.81405	0.98670
2700.76024	0.98675
2698.70643	0.98681
2696.65262	0.98694
2694.59881	0.98708
2692.54500	0.98717
2690.49119	0.98721
2688.43738	0.98725
2686.38357	0.98733
2684.32976	0.98746
2682.27595	0.98743
2680.22214	0.98731
2678.16833	0.98745
2676.11452	0.98778
2674.06071	0.98792
2672.00690	0.98794
2669.95309	0.98806
2667.89928	0.98819
2665.84547	0.98825
2663.79166	0.98820
2661.73785	0.98796
2659.68404	0.98776
2657.63023	0.98778
2655.57642	0.98784
2653.52261	0.98777
2651.46880	0.98773
2649.41499	0.98782
2647.36118	0.98772
2645.30737	0.98753
2643.25356	0.98790
2641.19975	0.98852
2639.14594	0.98860
2637.09213	0.98834
2635.03832	0.98827
2632.98451	0.98826
2630.93070	0.98811
2628.87689	0.98801
2626.82308	0.98813
2624.76927	0.98836
2622.71546	0.98856
2620.66165	0.98852
2618.60784	0.98826
2616.55403	0.98820
2614.50022	0.98833
2612.44641	0.98833
2610.39260	0.98826
2608.33879	0.98846
2606.28498	0.98884
2604.23117	0.98882
2602.17736	0.98858
2600.12355	0.98879
2598.06974	0.98941
2596.01593	0.98976
2593.96212	0.98950
2591.90831	0.98896
2589.85450	0.98853
2587.80069	0.98851
2585.74688	0.98879
2583.69307	0.98888
2581.63926	0.98865
2579.58545	0.98857
2577.53164	0.98873
2575.47783	0.98901
2573.42402	0.98928
2571.37021	0.98940
2569.31640	0.98946
2567.26259	0.98932
2565.20878	0.98915
2563.15497	0.98933
2561.10116	0.98952
2559.04735	0.98958
2556.99354	0.98964
2554.93973	0.98949
2552.88592	0.98939
2550.83211	0.98944
2548.77830	0.98912
2546.72449	0.98846
2544.67068	0.98802
2542.61687	0.98788
2540.56306	0.98788
2538.50925	0.98826
2536.45544	0.98900
2534.40163	0.98941
2532.34782	0.98899
2530.29401	0.98821
2528.24020	0.98806
2526.18639	0.98849
2524.13258	0.98886
2522.07877	0.98905
2520.02496	0.98909
2517.97115	0.98869
2515.91734	0.98806
2513.86353	0.98775
2511.80972	0.98796
2509.75591	0.98863
2507.70210	0.98910
2505.64828	0.98906
2503.59447	0.98884
2501.54066	0.98835
2499.48685	0.98760
2497.43304	0.98708
2495.37923	0.98687
2493.32542	0.98682
2491.27161	0.98713
2489.21780	0.98752
2487.16399	0.98755
2485.11018	0.98740
2483.05637	0.98717
2481.00256	0.98686
2478.94875	0.98666
2476.89494	0.98657
2474.84113	0.98646
2472.78732	0.98626
2470.73351	0.98614
2468.67970	0.98635
2466.62589	0.98671
2464.57208	0.98662
2462.51827	0.98617
2460.46446	0.98609
2458.41065	0.98629
2456.35684	0.98614
2454.30303	0.98583
2452.24922	0.98578
2450.19541	0.98590
2448.14160	0.98579
2446.08779	0.98552
2444.03398	0.98567
2441.98017	0.98598
2439.92636	0.98594
2437.87255	0.98565
2435.81874	0.98544
2433.76493	0.98543
2431.71112	0.98542
2429.65731	0.98534
2427.60350	0.98532
2425.54969	0.98533
2423.49588	0.98519
2421.44207	0.98500
2419.38826	0.98478
2417.33445	0.98455
2415.28064	0.98448
2413.22683	0.98450
2411.17302	0.98444
2409.11921	0.98441
2407.06540	0.98444
2405.01159	0.98453
2402.95778	0.98468
2400.90397	0.98464
2398.85016	0.98442
2396.79635	0.98409
2394.74254	0.98370
2392.68873	0.98342
2390.63492	0.98315
2388.58111	0.98307
2386.52730	0.98326
2384.47349	0.98339
2382.41968	0.98320
2380.36587	0.98279
2378.31206	0.98256
2376.25825	0.98252
2374.20444	0.98207
2372.15063	0.98145
2370.09682	0.98168
2368.04301	0.98268
2365.98920	0.98313
2363.93539	0.98263
2361.88158	0.98184
2359.82777	0.98109
2357.77396	0.98080
2355.72015	0.98096
2353.66634	0.98114
2351.61253	0.98103
2349.55872	0.98081
2347.50491	0.98076
2345.45110	0.98077
2343.39729	0.98073
2341.34348	0.98059
2339.28967	0.98056
2337.23586	0.98079
2335.18205	0.98053
2333.12824	0.97961
2331.07443	0.97921
2329.02062	0.97936
2326.96681	0.97905
2324.91300	0.97846
2322.85919	0.97791
2320.80538	0.97748
2318.75157	0.97728
2316.69776	0.97753
2314.64395	0.97793
2312.59014	0.97775
2310.53633	0.97712
2308.48252	0.97693
2306.42871	0.97731
2304.37490	0.97742
2302.32109	0.97692
2300.26728	0.97626
2298.21347	0.97576
2296.15966	0.97544
2294.10585	0.97527
2292.05204	0.97509
2289.99823	0.97499
2287.94442	0.97515
2285.89061	0.97535
2283.83680	0.97552
2281.78299	0.97574
2279.72918	0.97586
2277.67537	0.97574
2275.62156	0.97541
2273.56775	0.97513
2271.51394	0.97510
2269.46013	0.97518
2267.40632	0.97508
2265.35251	0.97474
2263.29870	0.97463
2261.24489	0.97451
2259.19108	0.97389
2257.13727	0.97348
2255.08346	0.97362
2253.02965	0.97399
2250.97584	0.97452
2248.92203	0.97446
2246.86822	0.97337
2244.81441	0.97190
2242.76060	0.97089
2240.70679	0.97084
2238.65298	0.97146
2236.59917	0.97216
2234.54536	0.97248
2232.49155	0.97231
2230.43774	0.97190
2228.38393	0.97124
2226.33012	0.97061
2224.27631	0.97075
2222.22250	0.97122
2220.16869	0.97126
2218.11488	0.97130
2216.06107	0.97124
2214.00726	0.97099
2211.95344	0.97086
2209.89963	0.97073
2207.84582	0.97057
2205.79201	0.97025
2203.73820	0.96963
2201.68439	0.96867
2199.63058	0.96808
2197.57677	0.96822
2195.52296	0.96855
2193.46915	0.96876
2191.41534	0.96807
2189.36153	0.96585
2187.30772	0.96373
2185.25391	0.96418
2183.20010	0.96518
2181.14629	0.96429
2179.09248	0.96494
2177.03867	0.96828
2174.98486	0.96977
2172.93105	0.96822
2170.87724	0.96691
2168.82343	0.96777
2166.76962	0.96927
2164.71581	0.96959
2162.66200	0.96887
2160.60819	0.96768
2158.55438	0.96703
2156.50057	0.96634
2154.44676	0.96504
2152.39295	0.96496
2150.33914	0.96619
2148.28533	0.96677
2146.23152	0.96678
2144.17771	0.96699
2142.12390	0.96643
2140.07009	0.96479
2138.01628	0.96342
2135.96247	0.96394
2133.90866	0.96556
2131.85485	0.96559
2129.80104	0.96436
2127.74723	0.96389
2125.69342	0.96399
2123.63961	0.96403
2121.58580	0.96412
2119.53199	0.96433
2117.47818	0.96461
2115.42437	0.96472
2113.37056	0.96444
2111.31675	0.96396
2109.26294	0.96376
2107.20913	0.96364
2105.15532	0.96362
2103.10151	0.96435
2101.04770	0.96544
2098.99389	0.96581
2096.94008	0.96518
2094.88627	0.96398
2092.83246	0.96331
2090.77865	0.96359
2088.72484	0.96388
2086.67103	0.96403
2084.61722	0.96387
2082.56341	0.96338
2080.50960	0.96372
2078.45579	0.96507
2076.40198	0.96608
2074.34817	0.96619
2072.29436	0.96585
2070.24055	0.96527
2068.18674	0.96470
2066.13293	0.96463
2064.07912	0.96517
2062.02531	0.96591
2059.97150	0.96667
2057.91769	0.96678
2055.86388	0.96602
2053.81007	0.96565
2051.75626	0.96590
2049.70245	0.96591
2047.64864	0.96566
2045.59483	0.96572
2043.54102	0.96630
2041.48721	0.96692
2039.43340	0.96713
2037.37959	0.96760
2035.32578	0.96862
2033.27197	0.96922
2031.21816	0.96959
2029.16435	0.97067
2027.11054	0.97148
2025.05673	0.97144
2023.00292	0.97181
2020.94911	0.97237
2018.89530	0.97154
2016.84149	0.96937
2014.78768	0.96815
2012.73387	0.96926
2010.68006	0.97179
2008.62625	0.97341
2006.57244	0.97261
2004.51863	0.97101
2002.46482	0.97099
2000.41101	0.97259
1998.35720	0.97402
1996.30339	0.97450
1994.24958	0.97407
1992.19577	0.97258
1990.14196	0.97088
1988.08815	0.97046
1986.03434	0.97162
1983.98053	0.97314
1981.92672	0.97367
1979.87291	0.97339
1977.81910	0.97331
1975.76529	0.97324
1973.71148	0.97282
1971.65767	0.97321
1969.60386	0.97482
1967.55005	0.97621
1965.49624	0.97618
1963.44243	0.97529
1961.38862	0.97583
1959.33481	0.97771
1957.28100	0.97771
1955.22719	0.97615
1953.17338	0.97597
1951.11957	0.97686
1949.06576	0.97686
1947.01195	0.97634
1944.95814	0.97648
1942.90433	0.97704
1940.85052	0.97788
1938.79671	0.97899
1936.74290	0.97927
1934.68909	0.97889
1932.63528	0.97865
1930.58147	0.97826
1928.52766	0.97790
1926.47385	0.97768
1924.42004	0.97732
1922.36623	0.97710
1920.31242	0.97721
1918.25861	0.97760
1916.20479	0.97760
1914.15098	0.97701
1912.09717	0.97680
1910.04336	0.97717
1907.98955	0.97758
1905.93574	0.97792
1903.88193	0.97796
1901.82812	0.97766
1899.77431	0.97776
1897.72050	0.97828
1895.66669	0.97813
1893.61288	0.97737
1891.55907	0.97712
1889.50526	0.97758
1887.45145	0.97826
1885.39764	0.97862
1883.34383	0.97854
1881.29002	0.97821
1879.23621	0.97792
1877.18240	0.97778
1875.12859	0.97770
1873.07478	0.97793
1871.02097	0.97820
1868.96716	0.97803
1866.91335	0.97781
1864.85954	0.97754
1862.80573	0.97719
1860.75192	0.97711
1858.69811	0.97715
1856.64430	0.97726
1854.59049	0.97719
1852.53668	0.97675
1850.48287	0.97657
1848.42906	0.97673
1846.37525	0.97669
1844.32144	0.97653
1842.26763	0.97670
1840.21382	0.97684
1838.16001	0.97641
1836.10620	0.97567
1834.05239	0.97518
1831.99858	0.97507
1829.94477	0.97526
1827.89096	0.97527
1825.83715	0.97478
1823.78334	0.97419
1821.72953	0.97383
1819.67572	0.97376
1817.62191	0.97395
1815.56810	0.97409
1813.51429	0.97377
1811.46048	0.97316
1809.40667	0.97264
1807.35286	0.97240
1805.29905	0.97225
1803.24524	0.97186
1801.19143	0.97137
1799.13762	0.97119
1797.08381	0.97117
1795.03000	0.97077
1792.97619	0.96998
1790.92238	0.96920
1788.86857	0.96855
1786.81476	0.96803
1784.76095	0.96761
1782.70714	0.96699
1780.65333	0.96628
1778.59952	0.96561
1776.54571	0.96498
1774.49190	0.96429
1772.43809	0.96337
1770.38428	0.96233
1768.33047	0.96129
1766.27666	0.96031
1764.22285	0.95957
1762.16904	0.95889
1760.11523	0.95809
1758.06142	0.95732
1756.00761	0.95649
1753.95380	0.95558
1751.89999	0.95441
1749.84618	0.95296
1747.79237	0.95172
1745.73856	0.95051
1743.68475	0.94906
1741.63094	0.94740
1739.57713	0.94574
1737.52332	0.94437
1735.46951	0.94295
1733.41570	0.94039
1731.36189	0.93773
1729.30808	0.93570
1727.25427	0.93371
1725.20046	0.93147
1723.14665	0.92882
1721.09284	0.92627
1719.03903	0.92359
1716.98522	0.92002
1714.93141	0.91648
1712.87760	0.91370
1710.82379	0.91075
1708.76998	0.90739
1706.71617	0.90361
1704.66236	0.89995
1702.60855	0.89697
1700.55474	0.89270
1698.50093	0.88729
1696.44712	0.88256
1694.39331	0.87791
1692.33950	0.87418
1690.28569	0.87023
1688.23188	0.86587
1686.17807	0.86163
1684.12426	0.85441
1682.07045	0.84661
1680.01664	0.84175
1677.96283	0.83758
1675.90902	0.83223
1673.85521	0.82589
1671.80140	0.82032
1669.74759	0.81409
1667.69378	0.80771
1665.63997	0.80300
1663.58616	0.79765
1661.53235	0.79091
1659.47854	0.78521
1657.42473	0.78098
1655.37092	0.77710
1653.31711	0.77030
1651.26330	0.76356
1649.20949	0.76068
1647.15568	0.75727
1645.10187	0.75307
1643.04806	0.75035
1640.99425	0.74853
1638.94044	0.74739
1636.88663	0.74661
1634.83282	0.74619
1632.77901	0.74715
1630.72520	0.74913
1628.67139	0.75193
1626.61758	0.75543
1624.56377	0.75957
1622.50996	0.76463
1620.45614	0.76988
1618.40233	0.77534
1616.34852	0.78215
1614.29471	0.78906
1612.24090	0.79527
1610.18709	0.80163
1608.13328	0.80817
1606.07947	0.81468
1604.02566	0.82098
1601.97185	0.82678
1599.91804	0.83206
1597.86423	0.83714
1595.81042	0.84211
1593.75661	0.84686
1591.70280	0.85123
1589.64899	0.85540
1587.59518	0.85943
1585.54137	0.86322
1583.48756	0.86663
1581.43375	0.86968
1579.37994	0.87246
1577.32613	0.87524
1575.27232	0.87813
1573.21851	0.88056
1571.16470	0.88286
1569.11089	0.88535
1567.05708	0.88753
1565.00327	0.88945
1562.94946	0.89129
1560.89565	0.89299
1558.84184	0.89480
1556.78803	0.89617
1554.73422	0.89722
1552.68041	0.89844
1550.62660	0.89979
1548.57279	0.90097
1546.51898	0.90197
1544.46517	0.90333
1542.41136	0.90495
1540.35755	0.90617
1538.30374	0.90705
1536.24993	0.90783
1534.19612	0.90847
1532.14231	0.90917
1530.08850	0.91015
1528.03469	0.91118
1525.98088	0.91190
1523.92707	0.91244
1521.87326	0.91312
1519.81945	0.91379
1517.76564	0.91449
1515.71183	0.91527
1513.65802	0.91582
1511.60421	0.91618
1509.55040	0.91666
1507.49659	0.91734
1505.44278	0.91773
1503.38897	0.91787
1501.33516	0.91814
1499.28135	0.91843
1497.22754	0.91858
1495.17373	0.91880
1493.11992	0.91923
1491.06611	0.91965
1489.01230	0.91971
1486.95849	0.91947
1484.90468	0.91919
1482.85087	0.91891
1480.79706	0.91860
1478.74325	0.91817
1476.68944	0.91763
1474.63563	0.91673
1472.58182	0.91454
1470.52801	0.91135
1468.47420	0.90836
1466.42039	0.90513
1464.36658	0.90136
1462.31277	0.89857
1460.25896	0.89737
1458.20515	0.89685
1456.15134	0.89610
1454.09753	0.89542
1452.04372	0.89552
1449.98991	0.89685
1447.93610	0.89977
1445.88229	0.90368
1443.82848	0.90724
1441.77467	0.90986
1439.72086	0.91136
1437.66705	0.91187
1435.61324	0.91226
1433.55943	0.91370
1431.50562	0.91581
1429.45181	0.91752
1427.39800	0.91837
1425.34419	0.91879
1423.29038	0.91904
1421.23657	0.91927
1419.18276	0.91949
1417.12895	0.91959
1415.07514	0.91956
1413.02133	0.91954
1410.96752	0.91959
1408.91371	0.91954
1406.85990	0.91948
1404.80609	0.91963
1402.75228	0.91995
1400.69847	0.92009
1398.64466	0.91999
1396.59085	0.91997
1394.53704	0.91995
1392.48323	0.91960
1390.42942	0.91896
1388.37561	0.91796
1386.32180	0.91600
1384.26799	0.91261
1382.21418	0.90703
1380.16037	0.89838
1378.10656	0.88836
1376.05275	0.88244
1373.99894	0.88535
1371.94513	0.89424
1369.89132	0.90270
1367.83751	0.90836
1365.78370	0.91113
1363.72989	0.91187
1361.67608	0.91121
1359.62227	0.91034
1357.56846	0.91070
1355.51465	0.91236
1353.46084	0.91449
1351.40703	0.91622
1349.35322	0.91732
1347.29941	0.91811
1345.24560	0.91877
1343.19179	0.91922
1341.13798	0.91960
1339.08417	0.91974
1337.03036	0.91947
1334.97655	0.91933
1332.92274	0.91940
1330.86893	0.91937
1328.81512	0.91937
1326.76130	0.91948
1324.70749	0.91965
1322.65368	0.91984
1320.59987	0.91991
1318.54606	0.91989
1316.49225	0.91993
1314.43844	0.92011
1312.38463	0.92026
1310.33082	0.92016
1308.27701	0.91961
1306.22320	0.91872
1304.16939	0.91802
1302.11558	0.91797
1300.06177	0.91833
1298.00796	0.91856
1295.95415	0.91843
1293.90034	0.91834
1291.84653	0.91861
1289.79272	0.91898
1287.73891	0.91917
1285.68510	0.91923
1283.63129	0.91931
1281.57748	0.91944
1279.52367	0.91955
1277.46986	0.91953
1275.41605	0.91934
1273.36224	0.91914
1271.30843	0.91910
1269.25462	0.91907
1267.20081	0.91896
1265.14700	0.91879
1263.09319	0.91846
1261.03938	0.91797
1258.98557	0.91741
1256.93176	0.91692
1254.87795	0.91674
1252.82414	0.91701
1250.77033	0.91731
1248.71652	0.91722
1246.66271	0.91705
1244.60890	0.91705
1242.55509	0.91703
1240.50128	0.91689
1238.44747	0.91671
1236.39366	0.91655
1234.33985	0.91648
1232.28604	0.91639
1230.23223	0.91627
1228.17842	0.91615
1226.12461	0.91602
1224.07080	0.91590
1222.01699	0.91578
1219.96318	0.91565
1217.90937	0.91555
1215.85556	0.91560
1213.80175	0.91575
1211.74794	0.91584
1209.69413	0.91583
1207.64032	0.91587
1205.58651	0.91601
1203.53270	0.91619
1201.47889	0.91622
1199.42508	0.91615
1197.37127	0.91609
1195.31746	0.91600
1193.26365	0.91601
1191.20984	0.91601
1189.15603	0.91585
1187.10222	0.91573
1185.04841	0.91567
1182.99460	0.91550
1180.94079	0.91529
1178.88698	0.91506
1176.83317	0.91463
1174.77936	0.91379
1172.72555	0.91240
1170.67174	0.91043
1168.61793	0.90863
1166.56412	0.90817
1164.51031	0.90905
1162.45650	0.91031
1160.40269	0.91139
1158.34888	0.91212
1156.29507	0.91231
1154.24126	0.91228
1152.18745	0.91253
1150.13364	0.91297
1148.07983	0.91348
1146.02602	0.91397
1143.97221	0.91409
1141.91840	0.91398
1139.86459	0.91408
1137.81078	0.91439
1135.75697	0.91449
1133.70316	0.91422
1131.64935	0.91379
1129.59554	0.91344
1127.54173	0.91341
1125.48792	0.91375
1123.43411	0.91408
1121.38030	0.91398
1119.32649	0.91357
1117.27268	0.91318
1115.21887	0.91303
1113.16506	0.91307
1111.11125	0.91295
1109.05744	0.91248
1107.00363	0.91176
1104.94982	0.91102
1102.89601	0.91042
1100.84220	0.91018
1098.78839	0.91026
1096.73458	0.91045
1094.68077	0.91060
1092.62696	0.91060
1090.57315	0.91043
1088.51934	0.91027
1086.46553	0.91030
1084.41172	0.91024
1082.35791	0.90988
1080.30410	0.90960
1078.25029	0.90944
1076.19648	0.90931
1074.14267	0.90937
1072.08886	0.90943
1070.03505	0.90936
1067.98124	0.90927
1065.92743	0.90915
1063.87362	0.90900
1061.81981	0.90883
1059.76600	0.90862
1057.71219	0.90835
1055.65838	0.90798
1053.60457	0.90753
1051.55076	0.90727
1049.49695	0.90714
1047.44314	0.90676
1045.38933	0.90617
1043.33552	0.90565
1041.28171	0.90547
1039.22790	0.90549
1037.17409	0.90530
1035.12028	0.90494
1033.06647	0.90480
1031.01265	0.90488
1028.95884	0.90492
1026.90503	0.90504
1024.85122	0.90511
1022.79741	0.90487
1020.74360	0.90439
1018.68979	0.90386
1016.63598	0.90347
1014.58217	0.90317
1012.52836	0.90294
1010.47455	0.90277
1008.42074	0.90231
1006.36693	0.90138
1004.31312	0.90010
1002.25931	0.89817
1000.20550	0.89547
998.15169	0.89326
996.09788	0.89323
994.04407	0.89489
991.99026	0.89631
989.93645	0.89687
987.88264	0.89699
985.82883	0.89672
983.77502	0.89607
981.72121	0.89511
979.66740	0.89345
977.61359	0.89082
975.55978	0.88775
973.50597	0.88539
971.45216	0.88489
969.39835	0.88624
967.34454	0.88784
965.29073	0.88848
963.23692	0.88828
961.18311	0.88776
959.12930	0.88688
957.07549	0.88565
955.02168	0.88446
952.96787	0.88358
950.91406	0.88280
948.86025	0.88174
946.80644	0.88039
944.75263	0.87903
942.69882	0.87773
940.64501	0.87626
938.59120	0.87463
936.53739	0.87313
934.48358	0.87189
932.42977	0.87076
930.37596	0.86950
928.32215	0.86803
926.26834	0.86646
924.21453	0.86506
922.16072	0.86365
920.10691	0.86183
918.05310	0.85981
915.99929	0.85786
913.94548	0.85583
911.89167	0.85354
909.83786	0.85126
907.78405	0.84922
905.73024	0.84696
903.67643	0.84395
901.62262	0.84077
899.56881	0.83819
897.51500	0.83637
895.46119	0.83495
893.40738	0.83340
891.35357	0.83144
889.29976	0.82917
887.24595	0.82669
885.19214	0.82394
883.13833	0.82116
881.08452	0.81864
879.03071	0.81619
876.97690	0.81355
874.92309	0.81096
872.86928	0.80846
870.81547	0.80554
868.76166	0.80209
866.70785	0.79890
864.65404	0.79626
862.60023	0.79352
860.54642	0.79070
858.49261	0.78812
856.43880	0.78545
854.38499	0.78247
852.33118	0.77903
850.27737	0.77512
848.22356	0.77127
846.16975	0.76734
844.11594	0.76250
842.06213	0.75732
840.00832	0.75384
837.95451	0.75224
835.90070	0.75081
833.84689	0.74881
831.79308	0.74649
829.73927	0.74417
827.68546	0.74145
825.63165	0.73829
823.57784	0.73547
821.52403	0.73273
819.47022	0.72941
817.41641	0.72587
815.36260	0.72241
813.30879	0.71868
811.25498	0.71459
809.20117	0.71072
807.14736	0.70756
805.09355	0.70511
803.03974	0.70272
800.98593	0.70004
798.93212	0.69755
796.87831	0.69481
794.82450	0.69132
792.77069	0.68814
790.71688	0.68586
788.66307	0.68353
786.60926	0.68048
784.55545	0.67697
782.50164	0.67348
780.44783	0.67030
778.39402	0.66763
776.34021	0.66549
774.28640	0.66311
772.23259	0.66009
770.17878	0.65681
768.12497	0.65365
766.07116	0.65059
764.01735	0.64763
761.96354	0.64506
759.90973	0.64276
757.85592	0.64033
755.80211	0.63782
753.74830	0.63516
751.69449	0.63214
749.64068	0.62905
747.58687	0.62605
745.53306	0.62324
743.47925	0.62061
741.42544	0.61816
739.37163	0.61616
737.31781	0.61418
735.26400	0.61169
733.21019	0.60878
731.15638	0.60582
729.10257	0.60294
727.04876	0.60022
724.99495	0.59779
722.94114	0.59523
720.88733	0.59231
718.83352	0.58950
716.77971	0.58713
714.72590	0.58519
712.67209	0.58340
710.61828	0.58110
708.56447	0.57834
706.51066	0.57574
704.45685	0.57330
702.40304	0.57092
700.34923	0.56867
698.29542	0.56650
696.24161	0.56430
694.18780	0.56182
692.13399	0.55914
690.08018	0.55670
688.02637	0.55459
685.97256	0.55283
683.91875	0.55121
681.86494	0.54917
679.81113	0.54657
677.75732	0.54364
675.70351	0.54083
673.64970	0.53849
671.59589	0.53677
669.54208	0.53495
667.48827	0.53177
665.43446	0.52908
663.38065	0.52712
661.32684	0.52527
659.27303	0.52348
657.21922	0.52131
655.16541	0.51930
653.11160	0.51808
651.05779	0.51672
649.00398	0.51436
646.95017	0.51180
644.89636	0.50951
642.84255	0.50729
640.78874	0.50569
638.73493	0.50473
636.68112	0.50336
634.62731	0.50113
632.57350	0.49855
630.51969	0.49631
628.46588	0.49466
626.41207	0.49319
624.35826	0.49165
622.30445	0.49013
620.25064	0.48852
618.19683	0.48656
616.14302	0.48449
614.08921	0.48281
612.03540	0.48146
609.98159	0.48014
607.92778	0.47898
605.87397	0.47782
603.82016	0.47608
601.76635	0.47386
599.71254	0.47195
597.65873	0.47063
595.60492	0.46955
593.55111	0.46855
591.49730	0.46769
589.44349	0.46677
587.38968	0.46527
585.33587	0.46351
583.28206	0.46214
581.22825	0.46053
579.17444	0.45810
577.12063	0.45597
575.06682	0.45491
573.01301	0.45424
570.95920	0.45334
568.90539	0.45192
566.85158	0.45084
564.79777	0.45042
562.74396	0.44965
560.69015	0.44855
558.63634	0.44771
556.58253	0.44709
554.52872	0.44652
552.47491	0.44598
550.42110	0.44498
548.36729	0.44364
546.31348	0.44302
544.25967	0.44286
542.20586	0.44281
540.15205	0.44298
538.09824	0.44277
536.04443	0.44220
533.99062	0.44166
531.93681	0.44071
529.88300	0.43938
527.82919	0.43801
525.77538	0.43670
523.72157	0.43639
521.66776	0.43662
519.61395	0.43668
517.56014	0.43652
515.50633	0.43456
513.45252	0.43182
511.39871	0.43065
509.34490	0.43063
507.29109	0.43073
505.23728	0.43102
503.18347	0.43115
501.12966	0.43061
499.07585	0.42991
497.02204	0.42928
494.96823	0.42805
492.91442	0.42691
490.86061	0.42724
488.80680	0.42767
486.75299	0.42674
484.69918	0.42476
482.64537	0.42281
480.59156	0.42174
478.53775	0.42120
476.48394	0.42121
474.43013	0.42178
472.37632	0.42170
470.32251	0.42105
468.26870	0.42145
466.21489	0.42112
464.16108	0.41760
462.10727	0.41313
460.05346	0.41120
457.99965	0.41151
455.94584	0.41211
453.89203	0.41249
451.83822	0.41345
449.78441	0.41453
447.73060	0.41358
445.67679	0.41264
443.62298	0.41360
441.56916	0.41372
439.51535	0.41251
437.46154	0.41081
435.40773	0.40962
433.35392	0.41069
431.30011	0.41213
429.24630	0.41095
427.19249	0.40894
425.13868	0.40851
423.08487	0.40908
421.03106	0.41078
418.97725	0.41225
416.92344	0.40989
414.86963	0.40596
412.81582	0.40282
410.76201	0.40393
408.70820	0.40769
406.65439	0.40778
404.60058	0.40638
402.54677	0.40555
400.49296	0.40432
398.43915	0.40461
