3996.71440	0.00341
3994.66059	0.00336
3992.60678	0.00336
3990.55297	0.00338
3988.49916	0.00343
3986.44535	0.00336
3984.39154	0.00318
3982.33773	0.00310
3980.28391	0.00310
3978.23010	0.00316
3976.17629	0.00320
3974.12248	0.00314
3972.06867	0.00321
3970.01486	0.00333
3967.96105	0.00328
3965.90724	0.00322
3963.85343	0.00333
3961.79962	0.00353
3959.74581	0.00363
3957.69200	0.00350
3955.63819	0.00328
3953.58438	0.00316
3951.53057	0.00316
3949.47676	0.00325
3947.42295	0.00336
3945.36914	0.00343
3943.31533	0.00351
3941.26152	0.00352
3939.20771	0.00343
3937.15390	0.00332
3935.10009	0.00320
3933.04628	0.00315
3930.99247	0.00325
3928.93866	0.00342
3926.88485	0.00351
3924.83104	0.00346
3922.77723	0.00328
3920.72342	0.00317
3918.66961	0.00324
3916.61580	0.00330
3914.56199	0.00321
3912.50818	0.00309
3910.45437	0.00312
3908.40056	0.00337
3906.34675	0.00363
3904.29294	0.00370
3902.23913	0.00365
3900.18532	0.00363
3898.13151	0.00358
3896.07770	0.00352
3894.02389	0.00341
3891.97008	0.00328
3889.91627	0.00317
3887.86246	0.00313
3885.80865	0.00312
3883.75484	0.00302
3881.70103	0.00297
3879.64722	0.00297
3877.59341	0.00285
3875.53960	0.00278
3873.48579	0.00286
3871.43198	0.00296
3869.37817	0.00302
3867.32436	0.00307
3865.27055	0.00316
3863.21674	0.00328
3861.16293	0.00341
3859.10912	0.00348
3857.05531	0.00345
3855.00150	0.00353
3852.94769	0.00364
3850.89388	0.00337
3848.84007	0.00307
3846.78626	0.00298
3844.73245	0.00301
3842.67864	0.00312
3840.62483	0.00327
3838.57102	0.00328
3836.51721	0.00318
3834.46340	0.00305
3832.40959	0.00283
3830.35578	0.00277
3828.30197	0.00296
3826.24816	0.00321
3824.19435	0.00348
3822.14054	0.00367
3820.08673	0.00356
3818.03292	0.00329
3815.97911	0.00309
3813.92530	0.00300
3811.87149	0.00303
3809.81768	0.00307
3807.76387	0.00310
3805.71006	0.00311
3803.65625	0.00317
3801.60244	0.00332
3799.54863	0.00335
3797.49482	0.00328
3795.44101	0.00323
3793.38720	0.00321
3791.33339	0.00313
3789.27958	0.00298
3787.22577	0.00287
3785.17196	0.00289
3783.11815	0.00299
3781.06434	0.00314
3779.01053	0.00328
3776.95672	0.00322
3774.90291	0.00310
3772.84910	0.00318
3770.79529	0.00344
3768.74148	0.00358
3766.68767	0.00350
3764.63386	0.00336
3762.58005	0.00321
3760.52624	0.00314
3758.47243	0.00312
3756.41862	0.00308
3754.36481	0.00304
3752.31100	0.00302
3750.25719	0.00317
3748.20338	0.00330
3746.14957	0.00302
3744.09576	0.00257
3742.04195	0.00259
3739.98814	0.00296
3737.93433	0.00341
3735.88052	0.00364
3733.82671	0.00343
3731.77290	0.00316
3729.71909	0.00304
3727.66528	0.00303
3725.61147	0.00303
3723.55766	0.00310
3721.50385	0.00315
3719.45004	0.00314
3717.39623	0.00324
3715.34242	0.00344
3713.28861	0.00372
3711.23480	0.00400
3709.18099	0.00399
3707.12718	0.00406
3705.07337	0.00443
3703.01956	0.00474
3700.96575	0.00500
3698.91194	0.00537
3696.85813	0.00558
3694.80432	0.00564
3692.75051	0.00572
3690.69670	0.00570
3688.64289	0.00552
3686.58907	0.00536
3684.53526	0.00536
3682.48145	0.00546
3680.42764	0.00557
3678.37383	0.00577
3676.32002	0.00607
3674.26621	0.00608
3672.21240	0.00603
3670.15859	0.00620
3668.10478	0.00636
3666.05097	0.00641
3663.99716	0.00645
3661.94335	0.00647
3659.88954	0.00652
3657.83573	0.00672
3655.78192	0.00704
3653.72811	0.00718
3651.67430	0.00721
3649.62049	0.00737
3647.56668	0.00758
3645.51287	0.00770
3643.45906	0.00781
3641.40525	0.00793
3639.35144	0.00815
3637.29763	0.00850
3635.24382	0.00889
3633.19001	0.00917
3631.13620	0.00923
3629.08239	0.00928
3627.02858	0.00958
3624.97477	0.00984
3622.92096	0.01004
3620.86715	0.01027
3618.81334	0.01038
3616.75953	0.01034
3614.70572	0.01047
3612.65191	0.01080
3610.59810	0.01106
3608.54429	0.01121
3606.49048	0.01148
3604.43667	0.01180
3602.38286	0.01200
3600.32905	0.01214
3598.27524	0.01235
3596.22143	0.01266
3594.16762	0.01294
3592.11381	0.01318
3590.06000	0.01344
3588.00619	0.01374
3585.95238	0.01400
3583.89857	0.01427
3581.84476	0.01458
3579.79095	0.01487
3577.73714	0.01510
3575.68333	0.01528
3573.62952	0.01543
3571.57571	0.01569
3569.52190	0.01593
3567.46809	0.01597
3565.41428	0.01618
3563.36047	0.01659
3561.30666	0.01689
3559.25285	0.01717
3557.19904	0.01760
3555.14523	0.01801
3553.09142	0.01821
3551.03761	0.01838
3548.98380	0.01869
3546.92999	0.01900
3544.87618	0.01927
3542.82237	0.01966
3540.76856	0.02000
3538.71475	0.02013
3536.66094	0.02015
3534.60713	0.02018
3532.55332	0.02032
3530.49951	0.02062
3528.44570	0.02101
3526.39189	0.02129
3524.33808	0.02141
3522.28427	0.02151
3520.23046	0.02177
3518.17665	0.02215
3516.12284	0.02248
3514.06903	0.02253
3512.01522	0.02248
3509.96141	0.02271
3507.90760	0.02307
3505.85379	0.02332
3503.79998	0.02359
3501.74617	0.02387
3499.69236	0.02398
3497.63855	0.02402
3495.58474	0.02423
3493.53093	0.02460
3491.47712	0.02496
3489.42331	0.02519
3487.36950	0.02527
3485.31569	0.02533
3483.26188	0.02558
3481.20807	0.02587
3479.15426	0.02594
3477.10045	0.02604
3475.04664	0.02630
3472.99283	0.02652
3470.93902	0.02665
3468.88521	0.02675
3466.83140	0.02692
3464.77759	0.02723
3462.72378	0.02753
3460.66997	0.02772
3458.61616	0.02782
3456.56235	0.02791
3454.50854	0.02808
3452.45473	0.02829
3450.40092	0.02846
3448.34711	0.02867
3446.29330	0.02893
3444.23949	0.02902
3442.18568	0.02901
3440.13187	0.02923
3438.07806	0.02954
3436.02425	0.02976
3433.97044	0.02984
3431.91663	0.02972
3429.86282	0.02967
3427.80901	0.02985
3425.75520	0.03003
3423.70139	0.03024
3421.64758	0.03054
3419.59377	0.03080
3417.53996	0.03100
3415.48615	0.03115
3413.43234	0.03126
3411.37853	0.03140
3409.32472	0.03147
3407.27091	0.03138
3405.21710	0.03138
3403.16329	0.03149
3401.10948	0.03139
3399.05567	0.03124
3397.00186	0.03130
3394.94805	0.03145
3392.89424	0.03166
3390.84042	0.03194
3388.78661	0.03202
3386.73280	0.03188
3384.67899	0.03177
3382.62518	0.03179
3380.57137	0.03181
3378.51756	0.03178
3376.46375	0.03172
3374.40994	0.03172
3372.35613	0.03180
3370.30232	0.03184
3368.24851	0.03176
3366.19470	0.03162
3364.14089	0.03161
3362.08708	0.03174
3360.03327	0.03181
3357.97946	0.03176
3355.92565	0.03169
3353.87184	0.03171
3351.81803	0.03183
3349.76422	0.03192
3347.71041	0.03188
3345.65660	0.03177
3343.60279	0.03168
3341.54898	0.03166
3339.49517	0.03166
3337.44136	0.03156
3335.38755	0.03147
3333.33374	0.03155
3331.27993	0.03166
3329.22612	0.03162
3327.17231	0.03148
3325.11850	0.03136
3323.06469	0.03137
3321.01088	0.03145
3318.95707	0.03137
3316.90326	0.03116
3314.84945	0.03108
3312.79564	0.03110
3310.74183	0.03105
3308.68802	0.03098
3306.63421	0.03097
3304.58040	0.03102
3302.52659	0.03110
3300.47278	0.03113
3298.41897	0.03114
3296.36516	0.03122
3294.31135	0.03125
3292.25754	0.03111
3290.20373	0.03097
3288.14992	0.03091
3286.09611	0.03078
3284.04230	0.03061
3281.98849	0.03050
3279.93468	0.03038
3277.88087	0.03014
3275.82706	0.02996
3273.77325	0.02985
3271.71944	0.02967
3269.66563	0.02945
3267.61182	0.02928
3265.55801	0.02913
3263.50420	0.02894
3261.45039	0.02873
3259.39658	0.02851
3257.34277	0.02831
3255.28896	0.02812
3253.23515	0.02797
3251.18134	0.02783
3249.12753	0.02767
3247.07372	0.02750
3245.01991	0.02731
3242.96610	0.02704
3240.91229	0.02681
3238.85848	0.02668
3236.80467	0.02651
3234.75086	0.02631
3232.69705	0.02617
3230.64324	0.02595
3228.58943	0.02568
3226.53562	0.02557
3224.48181	0.02553
3222.42800	0.02542
3220.37419	0.02528
3218.32038	0.02512
3216.26657	0.02492
3214.21276	0.02469
3212.15895	0.02447
3210.10514	0.02430
3208.05133	0.02414
3205.99752	0.02398
3203.94371	0.02372
3201.88990	0.02342
3199.83609	0.02328
3197.78228	0.02312
3195.72847	0.02281
3193.67466	0.02259
3191.62085	0.02243
3189.56704	0.02220
3187.51323	0.02194
3185.45942	0.02168
3183.40561	0.02151
3181.35180	0.02154
3179.29799	0.02147
3177.24418	0.02121
3175.19037	0.02102
3173.13656	0.02093
3171.08275	0.02074
3169.02894	0.02042
3166.97513	0.02007
3164.92132	0.01985
3162.86751	0.01975
3160.81370	0.01955
3158.75989	0.01926
3156.70608	0.01912
3154.65227	0.01914
3152.59846	0.01913
3150.54465	0.01897
3148.49084	0.01871
3146.43703	0.01846
3144.38322	0.01831
3142.32941	0.01820
3140.27560	0.01808
3138.22179	0.01799
3136.16798	0.01784
3134.11417	0.01753
3132.06036	0.01716
3130.00655	0.01684
3127.95274	0.01662
3125.89893	0.01652
3123.84512	0.01645
3121.79131	0.01634
3119.73750	0.01631
3117.68369	0.01631
3115.62988	0.01616
3113.57607	0.01596
3111.52226	0.01584
3109.46845	0.01586
3107.41464	0.01597
3105.36083	0.01593
3103.30702	0.01574
3101.25321	0.01559
3099.19940	0.01548
3097.14559	0.01538
3095.09177	0.01538
3093.03796	0.01547
3090.98415	0.01548
3088.93034	0.01539
3086.87653	0.01538
3084.82272	0.01545
3082.76891	0.01551
3080.71510	0.01560
3078.66129	0.01573
3076.60748	0.01577
3074.55367	0.01561
3072.49986	0.01535
3070.44605	0.01512
3068.39224	0.01498
3066.33843	0.01489
3064.28462	0.01474
3062.23081	0.01463
3060.17700	0.01455
3058.12319	0.01437
3056.06938	0.01418
3054.01557	0.01407
3051.96176	0.01394
3049.90795	0.01373
3047.85414	0.01364
3045.80033	0.01369
3043.74652	0.01364
3041.69271	0.01352
3039.63890	0.01356
3037.58509	0.01366
3035.53128	0.01354
3033.47747	0.01330
3031.42366	0.01324
3029.36985	0.01336
3027.31604	0.01339
3025.26223	0.01329
3023.20842	0.01325
3021.15461	0.01336
3019.10080	0.01347
3017.04699	0.01350
3014.99318	0.01358
3012.93937	0.01382
3010.88556	0.01415
3008.83175	0.01438
3006.77794	0.01451
3004.72413	0.01482
3002.67032	0.01534
3000.61651	0.01591
2998.56270	0.01661
2996.50889	0.01759
2994.45508	0.01869
2992.40127	0.01987
2990.34746	0.02137
2988.29365	0.02326
2986.23984	0.02539
2984.18603	0.02775
2982.13222	0.03044
2980.07841	0.03353
2978.02460	0.03706
2975.97079	0.04108
2973.91698	0.04548
2971.86317	0.05020
2969.80936	0.05524
2967.75555	0.06053
2965.70174	0.06560
2963.64793	0.06974
2961.59412	0.07245
2959.54031	0.07347
2957.48650	0.07268
2955.43269	0.07041
2953.37888	0.06723
2951.32507	0.06376
2949.27126	0.06076
2947.21745	0.05886
2945.16364	0.05854
2943.10983	0.05987
2941.05602	0.06245
2939.00221	0.06583
2936.94840	0.06967
2934.89459	0.07348
2932.84078	0.07670
2930.78697	0.07876
2928.73316	0.07946
2926.67935	0.07898
2924.62554	0.07768
2922.57173	0.07603
2920.51792	0.07436
2918.46411	0.07257
2916.41030	0.07032
2914.35649	0.06747
2912.30268	0.06426
2910.24887	0.06102
2908.19506	0.05781
2906.14125	0.05459
2904.08744	0.05141
2902.03363	0.04825
2899.97982	0.04516
2897.92601	0.04231
2895.87220	0.03983
2893.81839	0.03761
2891.76458	0.03567
2889.71077	0.03412
2887.65696	0.03313
2885.60315	0.03289
2883.54934	0.03352
2881.49553	0.03501
2879.44172	0.03720
2877.38791	0.03974
2875.33410	0.04193
2873.28029	0.04312
2871.22648	0.04301
2869.17267	0.04209
2867.11886	0.04138
2865.06505	0.04156
2863.01124	0.04251
2860.95743	0.04341
2858.90362	0.04338
2856.84981	0.04217
2854.79600	0.04008
2852.74219	0.03757
2850.68838	0.03482
2848.63457	0.03167
2846.58076	0.02820
2844.52695	0.02487
2842.47314	0.02211
2840.41933	0.01998
2838.36552	0.01823
2836.31171	0.01668
2834.25790	0.01535
2832.20409	0.01432
2830.15028	0.01361
2828.09647	0.01317
2826.04266	0.01277
2823.98885	0.01238
2821.93504	0.01213
2819.88123	0.01196
2817.82742	0.01172
2815.77361	0.01140
2813.71980	0.01102
2811.66599	0.01059
2809.61218	0.01012
2807.55837	0.00977
2805.50456	0.00958
2803.45075	0.00937
2801.39693	0.00905
2799.34312	0.00878
2797.28931	0.00861
2795.23550	0.00847
2793.18169	0.00836
2791.12788	0.00829
2789.07407	0.00810
2787.02026	0.00772
2784.96645	0.00745
2782.91264	0.00733
2780.85883	0.00723
2778.80502	0.00720
2776.75121	0.00727
2774.69740	0.00732
2772.64359	0.00731
2770.58978	0.00725
2768.53597	0.00719
2766.48216	0.00714
2764.42835	0.00708
2762.37454	0.00698
2760.32073	0.00692
2758.26692	0.00694
2756.21311	0.00694
2754.15930	0.00687
2752.10549	0.00686
2750.05168	0.00701
2747.99787	0.00715
2745.94406	0.00715
2743.89025	0.00701
2741.83644	0.00686
2739.78263	0.00683
2737.72882	0.00691
2735.67501	0.00692
2733.62120	0.00685
2731.56739	0.00685
2729.51358	0.00691
2727.45977	0.00689
2725.40596	0.00671
2723.35215	0.00657
2721.29834	0.00659
2719.24453	0.00652
2717.19072	0.00625
2715.13691	0.00597
2713.08310	0.00585
2711.02929	0.00589
2708.97548	0.00597
2706.92167	0.00602
2704.86786	0.00602
2702.81405	0.00595
2700.76024	0.00581
2698.70643	0.00564
2696.65262	0.00560
2694.59881	0.00566
2692.54500	0.00572
2690.49119	0.00573
2688.43738	0.00572
2686.38357	0.00571
2684.32976	0.00572
2682.27595	0.00574
2680.22214	0.00576
2678.16833	0.00574
2676.11452	0.00566
2674.06071	0.00553
2672.00690	0.00547
2669.95309	0.00544
2667.89928	0.00542
2665.84547	0.00540
2663.79166	0.00534
2661.73785	0.00529
2659.68404	0.00531
2657.63023	0.00534
2655.57642	0.00535
2653.52261	0.00531
2651.46880	0.00520
2649.41499	0.00511
2647.36118	0.00507
2645.30737	0.00503
2643.25356	0.00502
2641.19975	0.00507
2639.14594	0.00516
2637.09213	0.00520
2635.03832	0.00512
2632.98451	0.00505
2630.93070	0.00501
2628.87689	0.00495
2626.82308	0.00504
2624.76927	0.00524
2622.71546	0.00528
2620.66165	0.00524
2618.60784	0.00528
2616.55403	0.00533
2614.50022	0.00542
2612.44641	0.00546
2610.39260	0.00543
2608.33879	0.00549
2606.28498	0.00559
2604.23117	0.00561
2602.17736	0.00558
2600.12355	0.00555
2598.06974	0.00557
2596.01593	0.00555
2593.96212	0.00540
2591.90831	0.00524
2589.85450	0.00524
2587.80069	0.00530
2585.74688	0.00536
2583.69307	0.00537
2581.63926	0.00527
2579.58545	0.00527
2577.53164	0.00544
2575.47783	0.00551
2573.42402	0.00552
2571.37021	0.00555
2569.31640	0.00554
2567.26259	0.00556
2565.20878	0.00557
2563.15497	0.00545
2561.10116	0.00520
2559.04735	0.00510
2556.99354	0.00520
2554.93973	0.00529
2552.88592	0.00533
2550.83211	0.00534
2548.77830	0.00535
2546.72449	0.00544
2544.67068	0.00556
2542.61687	0.00548
2540.56306	0.00536
2538.50925	0.00548
2536.45544	0.00574
2534.40163	0.00600
2532.34782	0.00627
2530.29401	0.00671
2528.24020	0.00729
2526.18639	0.00782
2524.13258	0.00811
2522.07877	0.00819
2520.02496	0.00827
2517.97115	0.00852
2515.91734	0.00875
2513.86353	0.00883
2511.80972	0.00876
2509.75591	0.00851
2507.70210	0.00817
2505.64828	0.00781
2503.59447	0.00740
2501.54066	0.00689
2499.48685	0.00634
2497.43304	0.00593
2495.37923	0.00571
2493.32542	0.00546
2491.27161	0.00498
2489.21780	0.00445
2487.16399	0.00420
2485.11018	0.00413
2483.05637	0.00404
2481.00256	0.00389
2478.94875	0.00367
2476.89494	0.00356
2474.84113	0.00358
2472.78732	0.00358
2470.73351	0.00355
2468.67970	0.00355
2466.62589	0.00351
2464.57208	0.00336
2462.51827	0.00316
2460.46446	0.00312
2458.41065	0.00322
2456.35684	0.00328
2454.30303	0.00326
2452.24922	0.00314
2450.19541	0.00300
2448.14160	0.00303
2446.08779	0.00314
2444.03398	0.00322
2441.98017	0.00325
2439.92636	0.00313
2437.87255	0.00299
2435.81874	0.00303
2433.76493	0.00302
2431.71112	0.00294
2429.65731	0.00294
2427.60350	0.00299
2425.54969	0.00303
2423.49588	0.00307
2421.44207	0.00313
2419.38826	0.00321
2417.33445	0.00324
2415.28064	0.00325
2413.22683	0.00324
2411.17302	0.00310
2409.11921	0.00294
2407.06540	0.00292
2405.01159	0.00302
2402.95778	0.00311
2400.90397	0.00316
2398.85016	0.00316
2396.79635	0.00308
2394.74254	0.00304
2392.68873	0.00314
2390.63492	0.00320
2388.58111	0.00317
2386.52730	0.00315
2384.47349	0.00306
2382.41968	0.00288
2380.36587	0.00278
2378.31206	0.00275
2376.25825	0.00271
2374.20444	0.00263
2372.15063	0.00252
2370.09682	0.00239
2368.04301	0.00226
2365.98920	0.00223
2363.93539	0.00204
2361.88158	0.00172
2359.82777	0.00163
2357.77396	0.00173
2355.72015	0.00206
2353.66634	0.00246
2351.61253	0.00268
2349.55872	0.00279
2347.50491	0.00292
2345.45110	0.00300
2343.39729	0.00281
2341.34348	0.00262
2339.28967	0.00273
2337.23586	0.00293
2335.18205	0.00300
2333.12824	0.00294
2331.07443	0.00290
2329.02062	0.00305
2326.96681	0.00327
2324.91300	0.00337
2322.85919	0.00326
2320.80538	0.00308
2318.75157	0.00309
2316.69776	0.00311
2314.64395	0.00297
2312.59014	0.00275
2310.53633	0.00266
2308.48252	0.00288
2306.42871	0.00319
2304.37490	0.00324
2302.32109	0.00310
2300.26728	0.00306
2298.21347	0.00328
2296.15966	0.00345
2294.10585	0.00325
2292.05204	0.00301
2289.99823	0.00298
2287.94442	0.00299
2285.89061	0.00308
2283.83680	0.00317
2281.78299	0.00297
2279.72918	0.00266
2277.67537	0.00253
2275.62156	0.00253
2273.56775	0.00259
2271.51394	0.00259
2269.46013	0.00256
2267.40632	0.00242
2265.35251	0.00226
2263.29870	0.00254
2261.24489	0.00301
2259.19108	0.00319
2257.13727	0.00313
2255.08346	0.00288
2253.02965	0.00259
2250.97584	0.00245
2248.92203	0.00236
2246.86822	0.00205
2244.81441	0.00152
2242.76060	0.00139
2240.70679	0.00187
2238.65298	0.00231
2236.59917	0.00231
2234.54536	0.00218
2232.49155	0.00209
2230.43774	0.00212
2228.38393	0.00249
2226.33012	0.00286
2224.27631	0.00273
2222.22250	0.00231
2220.16869	0.00201
2218.11488	0.00206
2216.06107	0.00238
2214.00726	0.00245
2211.95344	0.00185
2209.89963	0.00131
2207.84582	0.00151
2205.79201	0.00195
2203.73820	0.00210
2201.68439	0.00186
2199.63058	0.00143
2197.57677	0.00134
2195.52296	0.00154
2193.46915	0.00195
2191.41534	0.00251
2189.36153	0.00252
2187.30772	0.00188
2185.25391	0.00134
2183.20010	0.00105
2181.14629	0.00072
2179.09248	0.00036
2177.03867	0.00022
2174.98486	0.00038
2172.93105	0.00082
2170.87724	0.00129
2168.82343	0.00143
2166.76962	0.00146
2164.71581	0.00176
2162.66200	0.00242
2160.60819	0.00244
2158.55438	0.00121
2156.50057	0.00023
2154.44676	0.00023
2152.39295	0.00063
2150.33914	0.00073
2148.28533	0.00043
2146.23152	0.00057
2144.17771	0.00140
2142.12390	0.00220
2140.07009	0.00253
2138.01628	0.00244
2135.96247	0.00196
2133.90866	0.00132
2131.85485	0.00107
2129.80104	0.00137
2127.74723	0.00191
2125.69342	0.00237
2123.63961	0.00237
2121.58580	0.00204
2119.53199	0.00184
2117.47818	0.00191
2115.42437	0.00229
2113.37056	0.00282
2111.31675	0.00312
2109.26294	0.00307
2107.20913	0.00275
2105.15532	0.00234
2103.10151	0.00213
2101.04770	0.00202
2098.99389	0.00196
2096.94008	0.00195
2094.88627	0.00189
2092.83246	0.00209
2090.77865	0.00245
2088.72484	0.00244
2086.67103	0.00229
2084.61722	0.00249
2082.56341	0.00274
2080.50960	0.00275
2078.45579	0.00256
2076.40198	0.00233
2074.34817	0.00224
2072.29436	0.00236
2070.24055	0.00266
2068.18674	0.00279
2066.13293	0.00249
2064.07912	0.00228
2062.02531	0.00255
2059.97150	0.00282
2057.91769	0.00297
2055.86388	0.00326
2053.81007	0.00327
2051.75626	0.00307
2049.70245	0.00303
2047.64864	0.00274
2045.59483	0.00194
2043.54102	0.00122
2041.48721	0.00128
2039.43340	0.00205
2037.37959	0.00283
2035.32578	0.00269
2033.27197	0.00180
2031.21816	0.00154
2029.16435	0.00201
2027.11054	0.00231
2025.05673	0.00223
2023.00292	0.00190
2020.94911	0.00155
2018.89530	0.00142
2016.84149	0.00176
2014.78768	0.00237
2012.73387	0.00252
2010.68006	0.00224
2008.62625	0.00179
2006.57244	0.00108
2004.51863	0.00068
2002.46482	0.00096
2000.41101	0.00148
1998.35720	0.00179
1996.30339	0.00168
1994.24958	0.00148
1992.19577	0.00167
1990.14196	0.00218
1988.08815	0.00244
1986.03434	0.00185
1983.98053	0.00104
1981.92672	0.00109
1979.87291	0.00158
1977.81910	0.00187
1975.76529	0.00182
1973.71148	0.00125
1971.65767	0.00096
1969.60386	0.00118
1967.55005	0.00122
1965.49624	0.00130
1963.44243	0.00184
1961.38862	0.00245
1959.33481	0.00254
1957.28100	0.00188
1955.22719	0.00107
1953.17338	0.00102
1951.11957	0.00158
1949.06576	0.00213
1947.01195	0.00259
1944.95814	0.00292
1942.90433	0.00311
1940.85052	0.00326
1938.79671	0.00321
1936.74290	0.00317
1934.68909	0.00317
1932.63528	0.00266
1930.58147	0.00183
1928.52766	0.00153
1926.47385	0.00189
1924.42004	0.00226
1922.36623	0.00249
1920.31242	0.00269
1918.25861	0.00264
1916.20479	0.00233
1914.15098	0.00216
1912.09717	0.00232
1910.04336	0.00257
1907.98955	0.00249
1905.93574	0.00222
1903.88193	0.00226
1901.82812	0.00239
1899.77431	0.00246
1897.72050	0.00268
1895.66669	0.00290
1893.61288	0.00283
1891.55907	0.00270
1889.50526	0.00288
1887.45145	0.00316
1885.39764	0.00318
1883.34383	0.00304
1881.29002	0.00290
1879.23621	0.00299
1877.18240	0.00325
1875.12859	0.00328
1873.07478	0.00319
1871.02097	0.00331
1868.96716	0.00360
1866.91335	0.00374
1864.85954	0.00362
1862.80573	0.00341
1860.75192	0.00332
1858.69811	0.00343
1856.64430	0.00355
1854.59049	0.00359
1852.53668	0.00375
1850.48287	0.00406
1848.42906	0.00428
1846.37525	0.00431
1844.32144	0.00422
1842.26763	0.00427
1840.21382	0.00450
1838.16001	0.00466
1836.10620	0.00472
1834.05239	0.00473
1831.99858	0.00478
1829.94477	0.00486
1827.89096	0.00483
1825.83715	0.00481
1823.78334	0.00491
1821.72953	0.00500
1819.67572	0.00507
1817.62191	0.00521
1815.56810	0.00553
1813.51429	0.00603
1811.46048	0.00657
1809.40667	0.00713
1807.35286	0.00780
1805.29905	0.00885
1803.24524	0.01055
1801.19143	0.01287
1799.13762	0.01494
1797.08381	0.01604
1795.03000	0.01624
1792.97619	0.01546
1790.92238	0.01354
1788.86857	0.01147
1786.81476	0.01004
1784.76095	0.00931
1782.70714	0.00894
1780.65333	0.00867
1778.59952	0.00850
1776.54571	0.00847
1774.49190	0.00859
1772.43809	0.00880
1770.38428	0.00911
1768.33047	0.00950
1766.27666	0.00983
1764.22285	0.01009
1762.16904	0.01045
1760.11523	0.01109
1758.06142	0.01204
1756.00761	0.01333
1753.95380	0.01479
1751.89999	0.01667
1749.84618	0.01959
1747.79237	0.02367
1745.73856	0.02891
1743.68475	0.03553
1741.63094	0.04357
1739.57713	0.05332
1737.52332	0.06280
1735.46951	0.07229
1733.41570	0.08555
1731.36189	0.09793
1729.30808	0.10730
1727.25427	0.11493
1725.20046	0.12010
1723.14665	0.12227
1721.09284	0.12105
1719.03903	0.11563
1716.98522	0.10425
1714.93141	0.09053
1712.87760	0.07817
1710.82379	0.06670
1708.76998	0.05630
1706.71617	0.04725
1704.66236	0.04012
1702.60855	0.03570
1700.55474	0.03256
1698.50093	0.03038
1696.44712	0.02945
1694.39331	0.02908
1692.33950	0.02919
1690.28569	0.02960
1688.23188	0.03015
1686.17807	0.03071
1684.12426	0.03137
1682.07045	0.03207
1680.01664	0.03266
1677.96283	0.03323
1675.90902	0.03378
1673.85521	0.03433
1671.80140	0.03481
1669.74759	0.03531
1667.69378	0.03589
1665.63997	0.03649
1663.58616	0.03719
1661.53235	0.03798
1659.47854	0.03861
1657.42473	0.03905
1655.37092	0.03936
1653.31711	0.03961
1651.26330	0.03997
1649.20949	0.04025
1647.15568	0.04042
1645.10187	0.04041
1643.04806	0.04034
1640.99425	0.04032
1638.94044	0.04034
1636.88663	0.04033
1634.83282	0.04025
1632.77901	0.04017
1630.72520	0.04006
1628.67139	0.03993
1626.61758	0.03972
1624.56377	0.03935
1622.50996	0.03886
1620.45614	0.03845
1618.40233	0.03813
1616.34852	0.03781
1614.29471	0.03757
1612.24090	0.03745
1610.18709	0.03751
1608.13328	0.03779
1606.07947	0.03850
1604.02566	0.03985
1601.97185	0.04150
1599.91804	0.04241
1597.86423	0.04220
1595.81042	0.04143
1593.75661	0.04075
1591.70280	0.04047
1589.64899	0.04063
1587.59518	0.04125
1585.54137	0.04246
1583.48756	0.04421
1581.43375	0.04579
1579.37994	0.04632
1577.32613	0.04540
1575.27232	0.04349
1573.21851	0.04218
1571.16470	0.04167
1569.11089	0.04154
1567.05708	0.04165
1565.00327	0.04192
1562.94946	0.04224
1560.89565	0.04277
1558.84184	0.04400
1556.78803	0.04520
1554.73422	0.04612
1552.68041	0.04752
1550.62660	0.04944
1548.57279	0.05174
1546.51898	0.05403
1544.46517	0.05644
1542.41136	0.05919
1540.35755	0.06260
1538.30374	0.06596
1536.24993	0.06827
1534.19612	0.07104
1532.14231	0.07443
1530.08850	0.07727
1528.03469	0.08017
1525.98088	0.08371
1523.92707	0.08716
1521.87326	0.09112
1519.81945	0.09544
1517.76564	0.09926
1515.71183	0.10324
1513.65802	0.10700
1511.60421	0.11059
1509.55040	0.11439
1507.49659	0.11986
1505.44278	0.12690
1503.38897	0.13170
1501.33516	0.13599
1499.28135	0.14163
1497.22754	0.14906
1495.17373	0.15693
1493.11992	0.16356
1491.06611	0.17083
1489.01230	0.18024
1486.95849	0.18896
1484.90468	0.19613
1482.85087	0.20333
1480.79706	0.21138
1478.74325	0.21953
1476.68944	0.22798
1474.63563	0.23757
1472.58182	0.24940
1470.52801	0.26130
1468.47420	0.27096
1466.42039	0.28115
1464.36658	0.29315
1462.31277	0.30347
1460.25896	0.31122
1458.20515	0.32046
1456.15134	0.33223
1454.09753	0.34061
1452.04372	0.34706
1449.98991	0.35465
1447.93610	0.36419
1445.88229	0.37404
1443.82848	0.38234
1441.77467	0.39019
1439.72086	0.39867
1437.66705	0.41004
1435.61324	0.42489
1433.55943	0.43670
1431.50562	0.44647
1429.45181	0.45816
1427.39800	0.47148
1425.34419	0.48447
1423.29038	0.49479
1421.23657	0.50127
1419.18276	0.50672
1417.12895	0.51089
1415.07514	0.51151
1413.02133	0.50934
1410.96752	0.50428
1408.91371	0.49643
1406.85990	0.48630
1404.80609	0.47446
1402.75228	0.46340
1400.69847	0.45479
1398.64466	0.44755
1396.59085	0.44066
1394.53704	0.43313
1392.48323	0.42527
1390.42942	0.41795
1388.37561	0.41088
1386.32180	0.40466
1384.26799	0.40004
1382.21418	0.39587
1380.16037	0.39026
1378.10656	0.38210
1376.05275	0.37113
1373.99894	0.35775
1371.94513	0.34481
1369.89132	0.33371
1367.83751	0.32348
1365.78370	0.31451
1363.72989	0.30644
1361.67608	0.29875
1359.62227	0.29209
1357.56846	0.28607
1355.51465	0.27979
1353.46084	0.27297
1351.40703	0.26565
1349.35322	0.25820
1347.29941	0.25142
1345.24560	0.24607
1343.19179	0.24263
1341.13798	0.24144
1339.08417	0.24233
1337.03036	0.24358
1334.97655	0.24331
1332.92274	0.24114
1330.86893	0.23765
1328.81512	0.23360
1326.76130	0.22951
1324.70749	0.22556
1322.65368	0.22179
1320.59987	0.21831
1318.54606	0.21530
1316.49225	0.21275
1314.43844	0.21044
1312.38463	0.20840
1310.33082	0.20714
1308.27701	0.20741
1306.22320	0.20952
1304.16939	0.21325
1302.11558	0.21841
1300.06177	0.22531
1298.00796	0.23445
1295.95415	0.24596
1293.90034	0.25871
1291.84653	0.27057
1289.79272	0.27932
1287.73891	0.28383
1285.68510	0.28515
1283.63129	0.28589
1281.57748	0.28798
1279.52367	0.29154
1277.46986	0.29560
1275.41605	0.29894
1273.36224	0.30068
1271.30843	0.30075
1269.25462	0.29980
1267.20081	0.29878
1265.14700	0.29832
1263.09319	0.29857
1261.03938	0.29962
1258.98557	0.30143
1256.93176	0.30263
1254.87795	0.30042
1252.82414	0.29337
1250.77033	0.28338
1248.71652	0.27319
1246.66271	0.26366
1244.60890	0.25459
1242.55509	0.24580
1240.50128	0.23713
1238.44747	0.22832
1236.39366	0.21949
1234.33985	0.21090
1232.28604	0.20256
1230.23223	0.19413
1228.17842	0.18478
1226.12461	0.17407
1224.07080	0.16310
1222.01699	0.15367
1219.96318	0.14646
1217.90937	0.14119
1215.85556	0.13749
1213.80175	0.13502
1211.74794	0.13325
1209.69413	0.13163
1207.64032	0.13011
1205.58651	0.12892
1203.53270	0.12803
1201.47889	0.12724
1199.42508	0.12632
1197.37127	0.12502
1195.31746	0.12319
1193.26365	0.12086
1191.20984	0.11814
1189.15603	0.11524
1187.10222	0.11229
1185.04841	0.10950
1182.99460	0.10717
1180.94079	0.10521
1178.88698	0.10344
1176.83317	0.10195
1174.77936	0.10094
1172.72555	0.10054
1170.67174	0.10090
1168.61793	0.10208
1166.56412	0.10365
1164.51031	0.10469
1162.45650	0.10455
1160.40269	0.10361
1158.34888	0.10272
1156.29507	0.10244
1154.24126	0.10294
1152.18745	0.10410
1150.13364	0.10598
1148.07983	0.10914
1146.02602	0.11424
1143.97221	0.12149
1141.91840	0.13034
1139.86459	0.13941
1137.81078	0.14738
1135.75697	0.15401
1133.70316	0.16012
1131.64935	0.16662
1129.59554	0.17375
1127.54173	0.18067
1125.48792	0.18607
1123.43411	0.18894
1121.38030	0.18865
1119.32649	0.18455
1117.27268	0.17658
1115.21887	0.16608
1113.16506	0.15526
1111.11125	0.14612
1109.05744	0.13976
1107.00363	0.13589
1104.94982	0.13364
1102.89601	0.13217
1100.84220	0.13084
1098.78839	0.12941
1096.73458	0.12809
1094.68077	0.12710
1092.62696	0.12669
1090.57315	0.12708
1088.51934	0.12828
1086.46553	0.13071
1084.41172	0.13525
1082.35791	0.14254
1080.30410	0.15297
1078.25029	0.16612
1076.19648	0.17975
1074.14267	0.18999
1072.08886	0.19323
1070.03505	0.18829
1067.98124	0.17739
1065.92743	0.16443
1063.87362	0.15257
1061.81981	0.14317
1059.76600	0.13623
1057.71219	0.13134
1055.65838	0.12797
1053.60457	0.12576
1051.55076	0.12465
1049.49695	0.12471
1047.44314	0.12607
1045.38933	0.12894
1043.33552	0.13320
1041.28171	0.13748
1039.22790	0.13940
1037.17409	0.13757
1035.12028	0.13320
1033.06647	0.12871
1031.01265	0.12534
1028.95884	0.12307
1026.90503	0.12149
1024.85122	0.12012
1022.79741	0.11871
1020.74360	0.11744
1018.68979	0.11619
1016.63598	0.11460
1014.58217	0.11269
1012.52836	0.11078
1010.47455	0.10907
1008.42074	0.10748
1006.36693	0.10594
1004.31312	0.10449
1002.25931	0.10328
1000.20550	0.10246
998.15169	0.10192
996.09788	0.10138
994.04407	0.10074
991.99026	0.09994
989.93645	0.09897
987.88264	0.09807
985.82883	0.09769
983.77502	0.09797
981.72121	0.09864
979.66740	0.09966
977.61359	0.10087
975.55978	0.10200
973.50597	0.10307
971.45216	0.10418
969.39835	0.10553
967.34454	0.10736
965.29073	0.10975
963.23692	0.11219
961.18311	0.11381
959.12930	0.11410
957.07549	0.11310
955.02168	0.11093
952.96787	0.10758
950.91406	0.10338
948.86025	0.09912
946.80644	0.09529
944.75263	0.09175
942.69882	0.08841
940.64501	0.08546
938.59120	0.08300
936.53739	0.08080
934.48358	0.07874
932.42977	0.07702
930.37596	0.07564
928.32215	0.07439
926.26834	0.07329
924.21453	0.07228
922.16072	0.07101
920.10691	0.06930
918.05310	0.06737
915.99929	0.06560
913.94548	0.06421
911.89167	0.06314
909.83786	0.06206
907.78405	0.06066
905.73024	0.05891
903.67643	0.05716
901.62262	0.05555
899.56881	0.05421
897.51500	0.05327
895.46119	0.05257
893.40738	0.05241
891.35357	0.05381
889.29976	0.05983
887.24595	0.07755
885.19214	0.11117
883.13833	0.15312
881.08452	0.19645
879.03071	0.24857
876.97690	0.31480
874.92309	0.38294
872.86928	0.42740
870.81547	0.42354
868.76166	0.37499
866.70785	0.31226
864.65404	0.25750
862.60023	0.21543
860.54642	0.18402
858.49261	0.16021
856.43880	0.14100
854.38499	0.12449
852.33118	0.11208
850.27737	0.10841
848.22356	0.10997
846.16975	0.10492
844.11594	0.09378
842.06213	0.08518
840.00832	0.08043
837.95451	0.07777
835.90070	0.07629
833.84689	0.07517
831.79308	0.07377
829.73927	0.07184
827.68546	0.06932
825.63165	0.06633
823.57784	0.06343
821.52403	0.06117
819.47022	0.05956
817.41641	0.05836
815.36260	0.05742
813.30879	0.05664
811.25498	0.05610
809.20117	0.05605
807.14736	0.05645
805.09355	0.05715
803.03974	0.05847
800.98593	0.06033
798.93212	0.06232
796.87831	0.06405
794.82450	0.06510
792.77069	0.06579
790.71688	0.06680
788.66307	0.06806
786.60926	0.06904
784.55545	0.06949
782.50164	0.06950
780.44783	0.06943
778.39402	0.06943
776.34021	0.06953
774.28640	0.06985
772.23259	0.07024
770.17878	0.07055
768.12497	0.07047
766.07116	0.06959
764.01735	0.06825
761.96354	0.06708
759.90973	0.06675
757.85592	0.06809
755.80211	0.07122
753.74830	0.07604
751.69449	0.08255
749.64068	0.09065
747.58687	0.09963
745.53306	0.10761
743.47925	0.11201
741.42544	0.11071
739.37163	0.10382
737.31781	0.09407
735.26400	0.08503
733.21019	0.07935
731.15638	0.07700
729.10257	0.07557
727.04876	0.07366
724.99495	0.07201
722.94114	0.07214
720.88733	0.07636
718.83352	0.08857
716.77971	0.11453
714.72590	0.15555
712.67209	0.19062
710.61828	0.19047
708.56447	0.16659
706.51066	0.14728
704.45685	0.13724
702.40304	0.13088
700.34923	0.12640
698.29542	0.12401
696.24161	0.12340
694.18780	0.12339
692.13399	0.12268
690.08018	0.12104
688.02637	0.11883
685.97256	0.11661
683.91875	0.11499
681.86494	0.11374
679.81113	0.11252
677.75732	0.11129
675.70351	0.10966
673.64970	0.10740
671.59589	0.10519
669.54208	0.10307
667.48827	0.10037
665.43446	0.09865
663.38065	0.09836
661.32684	0.09919
659.27303	0.10133
657.21922	0.10534
655.16541	0.11138
653.11160	0.11828
651.05779	0.12403
649.00398	0.12781
646.95017	0.13091
644.89636	0.13479
642.84255	0.13965
640.78874	0.14515
638.73493	0.15019
636.68112	0.15298
634.62731	0.15243
632.57350	0.14941
630.51969	0.14609
628.46588	0.14419
626.41207	0.14418
624.35826	0.14558
622.30445	0.14793
620.25064	0.15090
618.19683	0.15428
616.14302	0.15778
614.08921	0.16134
612.03540	0.16448
609.98159	0.16630
607.92778	0.16624
605.87397	0.16328
603.82016	0.15582
601.76635	0.14399
599.71254	0.13047
597.65873	0.11785
595.60492	0.10750
593.55111	0.09969
591.49730	0.09392
589.44349	0.09038
587.38968	0.08845
585.33587	0.08652
583.28206	0.08433
581.22825	0.08260
579.17444	0.08146
577.12063	0.08019
575.06682	0.07859
573.01301	0.07732
570.95920	0.07660
568.90539	0.07584
566.85158	0.07469
564.79777	0.07333
562.74396	0.07225
560.69015	0.07192
558.63634	0.07209
556.58253	0.07241
554.52872	0.07280
552.47491	0.07299
550.42110	0.07329
548.36729	0.07435
546.31348	0.07530
544.25967	0.07530
542.20586	0.07511
540.15205	0.07526
538.09824	0.07531
536.04443	0.07506
533.99062	0.07487
531.93681	0.07466
529.88300	0.07432
527.82919	0.07398
525.77538	0.07365
523.72157	0.07326
521.66776	0.07304
519.61395	0.07323
517.56014	0.07328
515.50633	0.07289
513.45252	0.07245
511.39871	0.07194
509.34490	0.07155
507.29109	0.07183
505.23728	0.07254
503.18347	0.07318
501.12966	0.07375
499.07585	0.07454
497.02204	0.07522
494.96823	0.07535
492.91442	0.07582
490.86061	0.07777
488.80680	0.08043
486.75299	0.08187
484.69918	0.08223
482.64537	0.08304
480.59156	0.08395
478.53775	0.08417
476.48394	0.08399
474.43013	0.08449
472.37632	0.08627
470.32251	0.08784
468.26870	0.08821
466.21489	0.08813
464.16108	0.08789
462.10727	0.08756
460.05346	0.08743
457.99965	0.08734
455.94584	0.08669
453.89203	0.08567
451.83822	0.08515
449.78441	0.08517
447.73060	0.08512
445.67679	0.08512
443.62298	0.08550
441.56916	0.08693
439.51535	0.08969
437.46154	0.09168
435.40773	0.09222
433.35392	0.09297
431.30011	0.09380
429.24630	0.09429
427.19249	0.09493
425.13868	0.09620
423.08487	0.09857
421.03106	0.10126
418.97725	0.10292
416.92344	0.10382
414.86963	0.10455
412.81582	0.10526
410.76201	0.10717
408.70820	0.11010
406.65439	0.11250
404.60058	0.11467
402.54677	0.11772
400.49296	0.12024
398.43915	0.12021
