3996.70104	0.99448
3994.64724	0.99406
3992.59344	0.99406
3990.53964	0.99442
3988.48583	0.99460
3986.43203	0.99483
3984.37823	0.99528
3982.32442	0.99532
3980.27062	0.99483
3978.21682	0.99447
3976.16301	0.99442
3974.10921	0.99448
3972.05541	0.99471
3970.00160	0.99483
3967.94780	0.99472
3965.89400	0.99464
3963.84019	0.99464
3961.78639	0.99476
3959.73259	0.99480
3957.67878	0.99449
3955.62498	0.99404
3953.57118	0.99385
3951.51737	0.99369
3949.46357	0.99380
3947.40977	0.99446
3945.35596	0.99464
3943.30216	0.99447
3941.24836	0.99477
3939.19455	0.99513
3937.14075	0.99495
3935.08695	0.99448
3933.03315	0.99436
3930.97934	0.99432
3928.92554	0.99420
3926.87174	0.99453
3924.81793	0.99508
3922.76413	0.99528
3920.71033	0.99514
3918.65652	0.99503
3916.60272	0.99520
3914.54892	0.99514
3912.49511	0.99488
3910.44131	0.99489
3908.38751	0.99467
3906.33370	0.99385
3904.27990	0.99314
3902.22610	0.99329
3900.17229	0.99426
3898.11849	0.99508
3896.06469	0.99490
3894.01088	0.99444
3891.95708	0.99481
3889.90328	0.99594
3887.84947	0.99659
3885.79567	0.99616
3883.74187	0.99521
3881.68807	0.99508
3879.63426	0.99574
3877.58046	0.99586
3875.52666	0.99526
3873.47285	0.99492
3871.41905	0.99509
3869.36525	0.99541
3867.31144	0.99562
3865.25764	0.99522
3863.20384	0.99478
3861.15003	0.99513
3859.09623	0.99533
3857.04243	0.99494
3854.98862	0.99535
3852.93482	0.99701
3850.88102	0.99676
3848.82721	0.99554
3846.77341	0.99486
3844.71961	0.99437
3842.66580	0.99368
3840.61200	0.99353
3838.55820	0.99454
3836.50439	0.99591
3834.45059	0.99667
3832.39679	0.99640
3830.34298	0.99535
3828.28918	0.99433
3826.23538	0.99388
3824.18158	0.99417
3822.12777	0.99490
3820.07397	0.99496
3818.02017	0.99401
3815.96636	0.99355
3813.91256	0.99421
3811.85876	0.99510
3809.80495	0.99576
3807.75115	0.99585
3805.69735	0.99513
3803.64354	0.99472
3801.58974	0.99526
3799.53594	0.99538
3797.48213	0.99505
3795.42833	0.99528
3793.37453	0.99561
3791.32072	0.99571
3789.26692	0.99539
3787.21312	0.99453
3785.15931	0.99380
3783.10551	0.99390
3781.05171	0.99443
3778.99790	0.99471
3776.94410	0.99466
3774.89030	0.99434
3772.83650	0.99378
3770.78269	0.99366
3768.72889	0.99448
3766.67509	0.99541
3764.62128	0.99604
3762.56748	0.99585
3760.51368	0.99525
3758.45987	0.99516
3756.40607	0.99529
3754.35227	0.99560
3752.29846	0.99621
3750.24466	0.99630
3748.19086	0.99594
3746.13705	0.99635
3744.08325	0.99669
3742.02945	0.99598
3739.97564	0.99563
3737.92184	0.99563
3735.86804	0.99539
3733.81423	0.99576
3731.76043	0.99685
3729.70663	0.99720
3727.65282	0.99654
3725.59902	0.99571
3723.54522	0.99514
3721.49141	0.99472
3719.43761	0.99464
3717.38381	0.99500
3715.33001	0.99559
3713.27620	0.99593
3711.22240	0.99551
3709.16860	0.99492
3707.11479	0.99475
3705.06099	0.99437
3703.00719	0.99367
3700.95338	0.99300
3698.89958	0.99263
3696.84578	0.99269
3694.79197	0.99307
3692.73817	0.99357
3690.68437	0.99368
3688.63056	0.99331
3686.57676	0.99327
3684.52296	0.99360
3682.46915	0.99382
3680.41535	0.99363
3678.36155	0.99358
3676.30774	0.99407
3674.25394	0.99377
3672.20014	0.99283
3670.14633	0.99252
3668.09253	0.99262
3666.03873	0.99242
3663.98492	0.99209
3661.93112	0.99234
3659.87732	0.99309
3657.82352	0.99354
3655.76971	0.99361
3653.71591	0.99310
3651.66211	0.99191
3649.60830	0.99131
3647.55450	0.99243
3645.50070	0.99327
3643.44689	0.99325
3641.39309	0.99268
3639.33929	0.99180
3637.28548	0.99129
3635.23168	0.99102
3633.17788	0.99021
3631.12407	0.98916
3629.07027	0.98937
3627.01647	0.99075
3624.96266	0.99120
3622.90886	0.99078
3620.85506	0.99037
3618.80125	0.99062
3616.74745	0.99105
3614.69365	0.99119
3612.63984	0.99141
3610.58604	0.99174
3608.53224	0.99215
3606.47844	0.99213
3604.42463	0.99128
3602.37083	0.99052
3600.31703	0.99027
3598.26322	0.99037
3596.20942	0.99060
3594.15562	0.99065
3592.10181	0.99113
3590.04801	0.99207
3587.99421	0.99213
3585.94040	0.99130
3583.88660	0.99119
3581.83280	0.99145
3579.77899	0.99133
3577.72519	0.99099
3575.67139	0.99040
3573.61758	0.98987
3571.56378	0.99010
3569.50998	0.99037
3567.45617	0.99007
3565.40237	0.99012
3563.34857	0.99033
3561.29476	0.99029
3559.24096	0.99031
3557.18716	0.99010
3555.13335	0.98957
3553.07955	0.98907
3551.02575	0.98892
3548.97195	0.98931
3546.91814	0.99018
3544.86434	0.99121
3542.81054	0.99152
3540.75673	0.99114
3538.70293	0.99079
3536.64913	0.99049
3534.59532	0.99030
3532.54152	0.99032
3530.48772	0.99049
3528.43391	0.99060
3526.38011	0.99051
3524.32631	0.99074
3522.27250	0.99136
3520.21870	0.99155
3518.16490	0.99093
3516.11109	0.99041
3514.05729	0.99063
3512.00349	0.99098
3509.94968	0.99083
3507.89588	0.99025
3505.84208	0.98998
3503.78827	0.99019
3501.73447	0.99054
3499.68067	0.99078
3497.62687	0.99073
3495.57306	0.99043
3493.51926	0.99027
3491.46546	0.99039
3489.41165	0.99031
3487.35785	0.98989
3485.30405	0.98983
3483.25024	0.99021
3481.19644	0.99055
3479.14264	0.99067
3477.08883	0.99074
3475.03503	0.99085
3472.98123	0.99063
3470.92742	0.98987
3468.87362	0.98919
3466.81982	0.98928
3464.76601	0.98981
3462.71221	0.99003
3460.65841	0.99000
3458.60460	0.99021
3456.55080	0.99087
3454.49700	0.99141
3452.44319	0.99126
3450.38939	0.99095
3448.33559	0.99090
3446.28178	0.99075
3444.22798	0.99037
3442.17418	0.98987
3440.12038	0.98958
3438.06657	0.98964
3436.01277	0.98988
3433.95897	0.99005
3431.90516	0.99015
3429.85136	0.99056
3427.79756	0.99105
3425.74375	0.99093
3423.68995	0.99018
3421.63615	0.98947
3419.58234	0.98908
3417.52854	0.98897
3415.47474	0.98924
3413.42093	0.98972
3411.36713	0.99008
3409.31333	0.99010
3407.25952	0.98964
3405.20572	0.98908
3403.15192	0.98900
3401.09811	0.98914
3399.04431	0.98943
3396.99051	0.99007
3394.93670	0.99046
3392.88290	0.99016
3390.82910	0.98950
3388.77529	0.98901
3386.72149	0.98890
3384.66769	0.98910
3382.61389	0.98912
3380.56008	0.98867
3378.50628	0.98850
3376.45248	0.98896
3374.39867	0.98910
3372.34487	0.98896
3370.29107	0.98944
3368.23726	0.99012
3366.18346	0.99032
3364.12966	0.99047
3362.07585	0.99061
3360.02205	0.99045
3357.96825	0.99048
3355.91444	0.99067
3353.86064	0.99031
3351.80684	0.98963
3349.75303	0.98916
3347.69923	0.98898
3345.64543	0.98913
3343.59162	0.98905
3341.53782	0.98875
3339.48402	0.98924
3337.43021	0.98997
3335.37641	0.99010
3333.32261	0.99025
3331.26881	0.99037
3329.21500	0.98988
3327.16120	0.98912
3325.10740	0.98864
3323.05359	0.98881
3320.99979	0.98948
3318.94599	0.99015
3316.89218	0.99056
3314.83838	0.99065
3312.78458	0.99055
3310.73077	0.99051
3308.67697	0.99036
3306.62317	0.99003
3304.56936	0.98979
3302.51556	0.98971
3300.46176	0.98985
3298.40795	0.98995
3296.35415	0.99011
3294.30035	0.99049
3292.24654	0.99042
3290.19274	0.99002
3288.13894	0.98973
3286.08513	0.98952
3284.03133	0.98982
3281.97753	0.99002
3279.92372	0.98958
3277.86992	0.98940
3275.81612	0.98967
3273.76232	0.99002
3271.70851	0.99040
3269.65471	0.99050
3267.60091	0.99044
3265.54710	0.99054
3263.49330	0.99072
3261.43950	0.99074
3259.38569	0.99058
3257.33189	0.99051
3255.27809	0.99038
3253.22428	0.99013
3251.17048	0.98988
3249.11668	0.98979
3247.06287	0.99044
3245.00907	0.99134
3242.95527	0.99148
3240.90146	0.99116
3238.84766	0.99103
3236.79386	0.99084
3234.74005	0.99053
3232.68625	0.99071
3230.63245	0.99084
3228.57864	0.99028
3226.52484	0.98996
3224.47104	0.99023
3222.41724	0.99044
3220.36343	0.99057
3218.30963	0.99101
3216.25583	0.99124
3214.20202	0.99103
3212.14822	0.99091
3210.09442	0.99094
3208.04061	0.99114
3205.98681	0.99142
3203.93301	0.99123
3201.87920	0.99072
3199.82540	0.99068
3197.77160	0.99112
3195.71779	0.99140
3193.66399	0.99144
3191.61019	0.99158
3189.55638	0.99165
3187.50258	0.99129
3185.44878	0.99098
3183.39497	0.99134
3181.34117	0.99173
3179.28737	0.99163
3177.23356	0.99173
3175.17976	0.99206
3173.12596	0.99200
3171.07215	0.99170
3169.01835	0.99158
3166.96455	0.99155
3164.91075	0.99168
3162.85694	0.99185
3160.80314	0.99136
3158.74934	0.99062
3156.69553	0.99052
3154.64173	0.99091
3152.58793	0.99134
3150.53412	0.99173
3148.48032	0.99222
3146.42652	0.99270
3144.37271	0.99274
3142.31891	0.99254
3140.26511	0.99261
3138.21130	0.99269
3136.15750	0.99260
3134.10370	0.99242
3132.04989	0.99243
3129.99609	0.99255
3127.94229	0.99236
3125.88848	0.99219
3123.83468	0.99211
3121.78088	0.99186
3119.72707	0.99161
3117.67327	0.99136
3115.61947	0.99133
3113.56566	0.99170
3111.51186	0.99195
3109.45806	0.99208
3107.40426	0.99239
3105.35045	0.99243
3103.29665	0.99224
3101.24285	0.99234
3099.18904	0.99241
3097.13524	0.99209
3095.08144	0.99184
3093.02763	0.99208
3090.97383	0.99215
3088.92003	0.99189
3086.86622	0.99229
3084.81242	0.99300
3082.75862	0.99274
3080.70481	0.99199
3078.65101	0.99188
3076.59721	0.99216
3074.54340	0.99203
3072.48960	0.99189
3070.43580	0.99237
3068.38199	0.99275
3066.32819	0.99258
3064.27439	0.99241
3062.22058	0.99274
3060.16678	0.99340
3058.11298	0.99357
3056.05918	0.99296
3054.00537	0.99247
3051.95157	0.99275
3049.89777	0.99315
3047.84396	0.99327
3045.79016	0.99354
3043.73636	0.99365
3041.68255	0.99305
3039.62875	0.99243
3037.57495	0.99266
3035.52114	0.99341
3033.46734	0.99368
3031.41354	0.99324
3029.35973	0.99302
3027.30593	0.99325
3025.25213	0.99332
3023.19832	0.99311
3021.14452	0.99296
3019.09072	0.99338
3017.03691	0.99407
3014.98311	0.99436
3012.92931	0.99413
3010.87550	0.99369
3008.82170	0.99330
3006.76790	0.99298
3004.71409	0.99301
3002.66029	0.99356
3000.60649	0.99404
2998.55269	0.99398
2996.49888	0.99383
2994.44508	0.99398
2992.39128	0.99405
2990.33747	0.99378
2988.28367	0.99347
2986.22987	0.99310
2984.17606	0.99265
2982.12226	0.99250
2980.06846	0.99266
2978.01465	0.99285
2975.96085	0.99263
2973.90705	0.99205
2971.85324	0.99153
2969.79944	0.99067
2967.74564	0.98946
2965.69183	0.98817
2963.63803	0.98679
2961.58423	0.98582
2959.53042	0.98538
2957.47662	0.98483
2955.42282	0.98402
2953.36901	0.98335
2951.31521	0.98276
2949.26141	0.98231
2947.20761	0.98251
2945.15380	0.98361
2943.10000	0.98539
2941.04620	0.98685
2938.99239	0.98727
2936.93859	0.98691
2934.88479	0.98611
2932.83098	0.98503
2930.77718	0.98366
2928.72338	0.98188
2926.66957	0.97991
2924.61577	0.97787
2922.56197	0.97551
2920.50816	0.97298
2918.45436	0.97090
2916.40056	0.96960
2914.34675	0.96944
2912.29295	0.97055
2910.23915	0.97213
2908.18534	0.97363
2906.13154	0.97518
2904.07774	0.97662
2902.02393	0.97764
2899.97013	0.97848
2897.91633	0.97936
2895.86252	0.98022
2893.80872	0.98116
2891.75492	0.98211
2889.70112	0.98280
2887.64731	0.98309
2885.59351	0.98325
2883.53971	0.98340
2881.48590	0.98330
2879.43210	0.98289
2877.37830	0.98257
2875.32449	0.98286
2873.27069	0.98367
2871.21689	0.98436
2869.16308	0.98421
2867.10928	0.98385
2865.05548	0.98437
2863.00167	0.98527
2860.94787	0.98585
2858.89407	0.98633
2856.84026	0.98646
2854.78646	0.98539
2852.73266	0.98304
2850.67885	0.98042
2848.62505	0.97883
2846.57125	0.97863
2844.51744	0.97914
2842.46364	0.97995
2840.40984	0.98084
2838.35603	0.98122
2836.30223	0.98127
2834.24843	0.98212
2832.19463	0.98392
2830.14082	0.98558
2828.08702	0.98662
2826.03322	0.98732
2823.97941	0.98791
2821.92561	0.98848
2819.87181	0.98909
2817.81800	0.98947
2815.76420	0.98937
2813.71040	0.98908
2811.65659	0.98908
2809.60279	0.98955
2807.54899	0.99028
2805.49518	0.99087
2803.44138	0.99107
2801.38758	0.99101
2799.33377	0.99103
2797.27997	0.99105
2795.22617	0.99099
2793.17236	0.99096
2791.11856	0.99115
2789.06476	0.99158
2787.01095	0.99186
2784.95715	0.99170
2782.90335	0.99145
2780.84955	0.99153
2778.79574	0.99156
2776.74194	0.99148
2774.68814	0.99175
2772.63433	0.99217
2770.58053	0.99222
2768.52673	0.99199
2766.47292	0.99177
2764.41912	0.99169
2762.36532	0.99184
2760.31151	0.99199
2758.25771	0.99186
2756.20391	0.99167
2754.15010	0.99178
2752.09630	0.99196
2750.04250	0.99201
2747.98869	0.99220
2745.93489	0.99239
2743.88109	0.99223
2741.82728	0.99214
2739.77348	0.99246
2737.71968	0.99275
2735.66587	0.99273
2733.61207	0.99251
2731.55827	0.99249
2729.50446	0.99268
2727.45066	0.99260
2725.39686	0.99218
2723.34306	0.99174
2721.28925	0.99153
2719.23545	0.99175
2717.18165	0.99229
2715.12784	0.99276
2713.07404	0.99296
2711.02024	0.99315
2708.96643	0.99352
2706.91263	0.99348
2704.85883	0.99297
2702.80502	0.99273
2700.75122	0.99274
2698.69742	0.99261
2696.64361	0.99248
2694.58981	0.99255
2692.53601	0.99268
2690.48220	0.99277
2688.42840	0.99284
2686.37460	0.99306
2684.32079	0.99350
2682.26699	0.99368
2680.21319	0.99343
2678.15938	0.99320
2676.10558	0.99316
2674.05178	0.99314
2671.99797	0.99319
2669.94417	0.99306
2667.89037	0.99276
2665.83657	0.99284
2663.78276	0.99308
2661.72896	0.99308
2659.67516	0.99305
2657.62135	0.99313
2655.56755	0.99325
2653.51375	0.99347
2651.45994	0.99351
2649.40614	0.99323
2647.35234	0.99294
2645.29853	0.99273
2643.24473	0.99249
2641.19093	0.99254
2639.13712	0.99290
2637.08332	0.99297
2635.02952	0.99274
2632.97571	0.99262
2630.92191	0.99268
2628.86811	0.99295
2626.81430	0.99328
2624.76050	0.99346
2622.70670	0.99348
2620.65289	0.99325
2618.59909	0.99327
2616.54529	0.99380
2614.49149	0.99411
2612.43768	0.99409
2610.38388	0.99410
2608.33008	0.99396
2606.27627	0.99407
2604.22247	0.99479
2602.16867	0.99484
2600.11486	0.99361
2598.06106	0.99257
2596.00726	0.99266
2593.95345	0.99327
2591.89965	0.99378
2589.84585	0.99380
2587.79204	0.99333
2585.73824	0.99306
2583.68444	0.99332
2581.63063	0.99359
2579.57683	0.99327
2577.52303	0.99303
2575.46922	0.99332
2573.41542	0.99329
2571.36162	0.99317
2569.30781	0.99357
2567.25401	0.99385
2565.20021	0.99346
2563.14640	0.99302
2561.09260	0.99338
2559.03880	0.99416
2556.98500	0.99433
2554.93119	0.99389
2552.87739	0.99335
2550.82359	0.99293
2548.76978	0.99289
2546.71598	0.99340
2544.66218	0.99382
2542.60837	0.99345
2540.55457	0.99321
2538.50077	0.99380
2536.44696	0.99404
2534.39316	0.99357
2532.33936	0.99337
2530.28555	0.99340
2528.23175	0.99337
2526.17795	0.99334
2524.12414	0.99326
2522.07034	0.99351
2520.01654	0.99434
2517.96273	0.99510
2515.90893	0.99493
2513.85513	0.99400
2511.80132	0.99324
2509.74752	0.99342
2507.69372	0.99453
2505.63992	0.99521
2503.58611	0.99468
2501.53231	0.99381
2499.47851	0.99338
2497.42470	0.99359
2495.37090	0.99367
2493.31710	0.99303
2491.26329	0.99274
2489.20949	0.99345
2487.15569	0.99440
2485.10188	0.99517
2483.04808	0.99543
2480.99428	0.99479
2478.94047	0.99420
2476.88667	0.99416
2474.83287	0.99410
2472.77906	0.99430
2470.72526	0.99442
2468.67146	0.99365
2466.61765	0.99320
2464.56385	0.99386
2462.51005	0.99456
2460.45624	0.99470
2458.40244	0.99441
2456.34864	0.99380
2454.29483	0.99341
2452.24103	0.99379
2450.18723	0.99457
2448.13343	0.99500
2446.07962	0.99508
2444.02582	0.99500
2441.97202	0.99469
2439.91821	0.99438
2437.86441	0.99429
2435.81061	0.99420
2433.75680	0.99406
2431.70300	0.99367
2429.64920	0.99305
2427.59539	0.99276
2425.54159	0.99305
2423.48779	0.99362
2421.43398	0.99391
2419.38018	0.99359
2417.32638	0.99360
2415.27257	0.99455
2413.21877	0.99552
2411.16497	0.99577
2409.11116	0.99551
2407.05736	0.99515
2405.00356	0.99482
2402.94975	0.99418
2400.89595	0.99367
2398.84215	0.99403
2396.78834	0.99452
2394.73454	0.99430
2392.68074	0.99372
2390.62694	0.99332
2388.57313	0.99338
2386.51933	0.99358
2384.46553	0.99348
2382.41172	0.99336
2380.35792	0.99341
2378.30412	0.99341
2376.25031	0.99346
2374.19651	0.99368
2372.14271	0.99377
2370.08890	0.99375
2368.03510	0.99444
2365.98130	0.99475
2363.92749	0.99363
2361.87369	0.99282
2359.81989	0.99223
2357.76608	0.99142
2355.71228	0.99174
2353.65848	0.99268
2351.60467	0.99326
2349.55087	0.99351
2347.49707	0.99355
2345.44326	0.99343
2343.38946	0.99333
2341.33566	0.99367
2339.28186	0.99429
2337.22805	0.99469
2335.17425	0.99486
2333.12045	0.99506
2331.06664	0.99535
2329.01284	0.99518
2326.95904	0.99416
2324.90523	0.99275
2322.85143	0.99207
2320.79763	0.99219
2318.74382	0.99233
2316.69002	0.99296
2314.63622	0.99384
2312.58241	0.99409
2310.52861	0.99423
2308.47481	0.99439
2306.42100	0.99415
2304.36720	0.99393
2302.31340	0.99360
2300.25959	0.99328
2298.20579	0.99338
2296.15199	0.99353
2294.09818	0.99375
2292.04438	0.99375
2289.99058	0.99346
2287.93677	0.99369
2285.88297	0.99475
2283.82917	0.99579
2281.77537	0.99562
2279.72156	0.99481
2277.66776	0.99432
2275.61396	0.99397
2273.56015	0.99407
2271.50635	0.99467
2269.45255	0.99517
2267.39874	0.99549
2265.34494	0.99545
2263.29114	0.99501
2261.23733	0.99478
2259.18353	0.99447
2257.12973	0.99397
2255.07592	0.99403
2253.02212	0.99389
2250.96832	0.99284
2248.91451	0.99212
2246.86071	0.99301
2244.80691	0.99457
2242.75310	0.99527
2240.69930	0.99552
2238.64550	0.99579
2236.59169	0.99530
2234.53789	0.99339
2232.48409	0.99128
2230.43029	0.99074
2228.37648	0.99173
2226.32268	0.99288
2224.26888	0.99274
2222.21507	0.99154
2220.16127	0.99113
2218.10747	0.99180
2216.05366	0.99203
2213.99986	0.99167
2211.94606	0.99237
2209.89225	0.99436
2207.83845	0.99556
2205.78465	0.99456
2203.73084	0.99248
2201.67704	0.99148
2199.62324	0.99269
2197.56943	0.99551
2195.51563	0.99748
2193.46183	0.99730
2191.40802	0.99620
2189.35422	0.99555
2187.30042	0.99633
2185.24661	0.99691
2183.19281	0.99533
2181.13901	0.99339
2179.08520	0.99337
2177.03140	0.99415
2174.97760	0.99371
2172.92380	0.99285
2170.86999	0.99237
2168.81619	0.99155
2166.76239	0.99142
2164.70858	0.99300
2162.65478	0.99460
2160.60098	0.99460
2158.54717	0.99470
2156.49337	0.99648
2154.43957	0.99687
2152.38576	0.99610
2150.33196	0.99647
2148.27816	0.99659
2146.22435	0.99638
2144.17055	0.99676
2142.11675	0.99676
2140.06294	0.99641
2138.00914	0.99703
2135.95534	0.99842
2133.90153	0.99878
2131.84773	0.99795
2129.79393	0.99767
2127.74012	0.99797
2125.68632	0.99744
2123.63252	0.99652
2121.57871	0.99600
2119.52491	0.99567
2117.47111	0.99577
2115.41731	0.99629
2113.36350	0.99621
2111.30970	0.99573
2109.25590	0.99574
2107.20209	0.99551
2105.14829	0.99456
2103.09449	0.99435
2101.04068	0.99551
2098.98688	0.99652
2096.93308	0.99591
2094.87927	0.99440
2092.82547	0.99385
2090.77167	0.99445
2088.71786	0.99550
2086.66406	0.99618
2084.61026	0.99594
2082.55645	0.99501
2080.50265	0.99410
2078.44885	0.99431
2076.39504	0.99477
2074.34124	0.99431
2072.28744	0.99370
2070.23363	0.99285
2068.17983	0.99197
2066.12603	0.99302
2064.07223	0.99570
2062.01842	0.99699
2059.96462	0.99616
2057.91082	0.99442
2055.85701	0.99205
2053.80321	0.99031
2051.74941	0.99035
2049.69560	0.99170
2047.64180	0.99320
2045.58800	0.99432
2043.53419	0.99592
2041.48039	0.99686
2039.42659	0.99629
2037.37278	0.99596
2035.31898	0.99437
2033.26518	0.99224
2031.21137	0.99418
2029.15757	0.99664
2027.10377	0.99550
2025.04996	0.99358
2022.99616	0.99321
2020.94236	0.99437
2018.88855	0.99508
2016.83475	0.99508
2014.78095	0.99591
2012.72714	0.99527
2010.67334	0.99145
2008.61954	0.98883
2006.56574	0.99064
2004.51193	0.99459
2002.45813	0.99813
2000.40433	0.99910
1998.35052	0.99684
1996.29672	0.99482
1994.24292	0.99569
1992.18911	0.99708
1990.13531	0.99669
1988.08151	0.99574
1986.02770	0.99479
1983.97390	0.99353
1981.92010	0.99206
1979.86629	0.99150
1977.81249	0.99262
1975.75869	0.99393
1973.70488	0.99441
1971.65108	0.99458
1969.59728	0.99486
1967.54347	0.99594
1965.48967	0.99719
1963.43587	0.99668
1961.38206	0.99554
1959.32826	0.99580
1957.27446	0.99673
1955.22066	0.99740
1953.16685	0.99821
1951.11305	0.99803
1949.05925	0.99688
1947.00544	0.99668
1944.95164	0.99659
1942.89784	0.99588
1940.84403	0.99524
1938.79023	0.99498
1936.73643	0.99576
1934.68262	0.99643
1932.62882	0.99558
1930.57502	0.99471
1928.52121	0.99473
1926.46741	0.99416
1924.41361	0.99344
1922.35980	0.99445
1920.30600	0.99591
1918.25220	0.99562
1916.19839	0.99399
1914.14459	0.99291
1912.09079	0.99350
1910.03698	0.99517
1907.98318	0.99643
1905.92938	0.99648
1903.87557	0.99556
1901.82177	0.99522
1899.76797	0.99531
1897.71417	0.99473
1895.66036	0.99462
1893.60656	0.99523
1891.55276	0.99523
1889.49895	0.99464
1887.44515	0.99428
1885.39135	0.99417
1883.33754	0.99400
1881.28374	0.99381
1879.22994	0.99396
1877.17613	0.99473
1875.12233	0.99532
1873.06853	0.99492
1871.01472	0.99375
1868.96092	0.99297
1866.90712	0.99345
1864.85331	0.99426
1862.79951	0.99467
1860.74571	0.99486
1858.69190	0.99494
1856.63810	0.99480
1854.58430	0.99457
1852.53049	0.99446
1850.47669	0.99436
1848.42289	0.99422
1846.36908	0.99415
1844.31528	0.99386
1842.26148	0.99336
1840.20768	0.99358
1838.15387	0.99435
1836.10007	0.99469
1834.04627	0.99447
1831.99246	0.99415
1829.93866	0.99382
1827.88486	0.99353
1825.83105	0.99339
1823.77725	0.99369
1821.72345	0.99443
1819.66964	0.99497
1817.61584	0.99473
1815.56204	0.99420
1813.50823	0.99418
1811.45443	0.99445
1809.40063	0.99426
1807.34682	0.99365
1805.29302	0.99332
1803.23922	0.99335
1801.18541	0.99346
1799.13161	0.99359
1797.07781	0.99364
1795.02400	0.99359
1792.97020	0.99366
1790.91640	0.99417
1788.86260	0.99457
1786.80879	0.99420
1784.75499	0.99365
1782.70119	0.99359
1780.64738	0.99364
1778.59358	0.99371
1776.53978	0.99383
1774.48597	0.99369
1772.43217	0.99339
1770.37837	0.99344
1768.32456	0.99354
1766.27076	0.99346
1764.21696	0.99341
1762.16315	0.99336
1760.10935	0.99326
1758.05555	0.99352
1756.00174	0.99408
1753.94794	0.99415
1751.89414	0.99401
1749.84033	0.99428
1747.78653	0.99432
1745.73273	0.99385
1743.67892	0.99328
1741.62512	0.99291
1739.57132	0.99305
1737.51751	0.99340
1735.46371	0.99317
1733.40991	0.99241
1731.35611	0.99223
1729.30230	0.99261
1727.24850	0.99310
1725.19470	0.99328
1723.14089	0.99289
1721.08709	0.99233
1719.03329	0.99228
1716.97948	0.99281
1714.92568	0.99311
1712.87188	0.99334
1710.81807	0.99355
1708.76427	0.99341
1706.71047	0.99313
1704.65666	0.99298
1702.60286	0.99263
1700.54906	0.99176
1698.49525	0.99107
1696.44145	0.99140
1694.38765	0.99216
1692.33384	0.99227
1690.28004	0.99186
1688.22624	0.99159
1686.17243	0.99173
1684.11863	0.99201
1682.06483	0.99184
1680.01103	0.99146
1677.95722	0.99117
1675.90342	0.99089
1673.84962	0.99050
1671.79581	0.99037
1669.74201	0.99073
1667.68821	0.99086
1665.63440	0.99059
1663.58060	0.99053
1661.52680	0.99058
1659.47299	0.99042
1657.41919	0.99013
1655.36539	0.98993
1653.31158	0.99026
1651.25778	0.99017
1649.20398	0.98952
1647.15017	0.98946
1645.09637	0.99000
1643.04257	0.99000
1640.98876	0.98962
1638.93496	0.98929
1636.88116	0.98928
1634.82735	0.98999
1632.77355	0.99029
1630.71975	0.98994
1628.66594	0.98983
1626.61214	0.99002
1624.55834	0.99026
1622.50454	0.99056
1620.45073	0.99035
1618.39693	0.98992
1616.34313	0.99026
1614.28932	0.99074
1612.23552	0.99054
1610.18172	0.99024
1608.12791	0.99026
1606.07411	0.99032
1604.02031	0.99032
1601.96650	0.99049
1599.91270	0.99083
1597.85890	0.99099
1595.80509	0.99090
1593.75129	0.99084
1591.69749	0.99082
1589.64368	0.99077
1587.58988	0.99079
1585.53608	0.99082
1583.48227	0.99066
1581.42847	0.99044
1579.37467	0.99051
1577.32086	0.99083
1575.26706	0.99072
1573.21326	0.99006
1571.15945	0.98960
1569.10565	0.98983
1567.05185	0.99040
1564.99805	0.99072
1562.94424	0.99061
1560.89044	0.99020
1558.83664	0.99049
1556.78283	0.99114
1554.72903	0.99095
1552.67523	0.99064
1550.62142	0.99054
1548.56762	0.99034
1546.51382	0.98978
1544.46001	0.98939
1542.40621	0.98952
1540.35241	0.98974
1538.29860	0.98966
1536.24480	0.98939
1534.19100	0.98943
1532.13719	0.98971
1530.08339	0.98964
1528.02959	0.98961
1525.97578	0.98992
1523.92198	0.99004
1521.86818	0.98963
1519.81437	0.98915
1517.76057	0.98899
1515.70677	0.98860
1513.65297	0.98809
1511.59916	0.98798
1509.54536	0.98811
1507.49156	0.98848
1505.43775	0.98880
1503.38395	0.98843
1501.33015	0.98799
1499.27634	0.98779
1497.22254	0.98774
1495.16874	0.98748
1493.11493	0.98699
1491.06113	0.98676
1489.00733	0.98704
1486.95352	0.98718
1484.89972	0.98709
1482.84592	0.98693
1480.79211	0.98650
1478.73831	0.98576
1476.68451	0.98479
1474.63070	0.98352
1472.57690	0.98200
1470.52310	0.98094
1468.46929	0.98020
1466.41549	0.97920
1464.36169	0.97776
1462.30788	0.97629
1460.25408	0.97528
1458.20028	0.97526
1456.14648	0.97622
1454.09267	0.97655
1452.03887	0.97651
1449.98507	0.97689
1447.93126	0.97829
1445.87746	0.98036
1443.82366	0.98200
1441.76985	0.98287
1439.71605	0.98309
1437.66225	0.98312
1435.60844	0.98359
1433.55464	0.98420
1431.50084	0.98459
1429.44703	0.98498
1427.39323	0.98544
1425.33943	0.98595
1423.28562	0.98651
1421.23182	0.98677
1419.17802	0.98661
1417.12421	0.98639
1415.07041	0.98651
1413.01661	0.98708
1410.96280	0.98769
1408.90900	0.98781
1406.85520	0.98777
1404.80139	0.98803
1402.74759	0.98823
1400.69379	0.98814
1398.63999	0.98826
1396.58618	0.98869
1394.53238	0.98908
1392.47858	0.98929
1390.42477	0.98943
1388.37097	0.98953
1386.31717	0.98914
1384.26336	0.98805
1382.20956	0.98609
1380.15576	0.98282
1378.10195	0.97878
1376.04815	0.97593
1373.99435	0.97630
1371.94054	0.97944
1369.88674	0.98291
1367.83294	0.98522
1365.77913	0.98605
1363.72533	0.98619
1361.67153	0.98615
1359.61772	0.98601
1357.56392	0.98614
1355.51012	0.98658
1353.45631	0.98714
1351.40251	0.98777
1349.34871	0.98838
1347.29491	0.98883
1345.24110	0.98890
1343.18730	0.98868
1341.13350	0.98875
1339.07969	0.98915
1337.02589	0.98931
1334.97209	0.98914
1332.91828	0.98891
1330.86448	0.98883
1328.81068	0.98879
1326.75687	0.98865
1324.70307	0.98860
1322.64927	0.98856
1320.59546	0.98857
1318.54166	0.98881
1316.48786	0.98906
1314.43405	0.98903
1312.38025	0.98908
1310.32645	0.98944
1308.27264	0.98965
1306.21884	0.98933
1304.16504	0.98892
1302.11123	0.98885
1300.05743	0.98888
1298.00363	0.98877
1295.94982	0.98860
1293.89602	0.98860
1291.84222	0.98886
1289.78842	0.98900
1287.73461	0.98884
1285.68081	0.98867
1283.62701	0.98880
1281.57320	0.98914
1279.51940	0.98935
1277.46560	0.98930
1275.41179	0.98916
1273.35799	0.98885
1271.30419	0.98845
1269.25038	0.98841
1267.19658	0.98875
1265.14278	0.98904
1263.08897	0.98894
1261.03517	0.98855
1258.98137	0.98803
1256.92756	0.98752
1254.87376	0.98733
1252.81996	0.98749
1250.76615	0.98782
1248.71235	0.98808
1246.65855	0.98806
1244.60474	0.98785
1242.55094	0.98754
1240.49714	0.98724
1238.44334	0.98721
1236.38953	0.98718
1234.33573	0.98695
1232.28193	0.98707
1230.22812	0.98724
1228.17432	0.98692
1226.12052	0.98659
1224.06671	0.98660
1222.01291	0.98666
1219.95911	0.98646
1217.90530	0.98598
1215.85150	0.98546
1213.79770	0.98505
1211.74389	0.98487
1209.69009	0.98483
1207.63629	0.98458
1205.58248	0.98392
1203.52868	0.98300
1201.47488	0.98216
1199.42107	0.98170
1197.36727	0.98150
1195.31347	0.98127
1193.25966	0.98098
1191.20586	0.98041
1189.15206	0.97945
1187.09825	0.97847
1185.04445	0.97782
1182.99065	0.97744
1180.93685	0.97697
1178.88304	0.97617
1176.82924	0.97539
1174.77544	0.97474
1172.72163	0.97384
1170.66783	0.97261
1168.61403	0.97154
1166.56022	0.97088
1164.50642	0.97045
1162.45262	0.97021
1160.39881	0.97024
1158.34501	0.97030
1156.29121	0.96993
1154.23740	0.96939
1152.18360	0.96911
1150.12980	0.96875
1148.07599	0.96833
1146.02219	0.96800
1143.96839	0.96741
1141.91458	0.96686
1139.86078	0.96693
1137.80698	0.96700
1135.75317	0.96648
1133.69937	0.96579
1131.64557	0.96524
1129.59176	0.96451
1127.53796	0.96340
1125.48416	0.96228
1123.43036	0.96157
1121.37655	0.96089
1119.32275	0.95992
1117.26895	0.95880
1115.21514	0.95772
1113.16134	0.95670
1111.10754	0.95572
1109.05373	0.95476
1106.99993	0.95356
1104.94613	0.95225
1102.89232	0.95142
1100.83852	0.95113
1098.78472	0.95097
1096.73091	0.95043
1094.67711	0.94937
1092.62331	0.94836
1090.56950	0.94789
1088.51570	0.94772
1086.46190	0.94764
1084.40809	0.94762
1082.35429	0.94758
1080.30049	0.94731
1078.24668	0.94683
1076.19288	0.94637
1074.13908	0.94589
1072.08528	0.94537
1070.03147	0.94506
1067.97767	0.94476
1065.92387	0.94407
1063.87006	0.94302
1061.81626	0.94177
1059.76246	0.94053
1057.70865	0.93981
1055.65485	0.93940
1053.60105	0.93856
1051.54724	0.93738
1049.49344	0.93625
1047.43964	0.93494
1045.38583	0.93342
1043.33203	0.93174
1041.27823	0.92976
1039.22442	0.92773
1037.17062	0.92602
1035.11682	0.92461
1033.06301	0.92341
1031.00921	0.92228
1028.95541	0.92127
1026.90160	0.92085
1024.84780	0.92107
1022.79400	0.92105
1020.74019	0.92019
1018.68639	0.91899
1016.63259	0.91808
1014.57879	0.91762
1012.52498	0.91752
1010.47118	0.91740
1008.41738	0.91681
1006.36357	0.91604
1004.30977	0.91574
1002.25597	0.91563
1000.20216	0.91499
998.14836	0.91424
996.09456	0.91413
994.04075	0.91471
991.98695	0.91570
989.93315	0.91693
987.87934	0.91830
985.82554	0.91947
983.77174	0.92012
981.71793	0.92060
979.66413	0.92146
977.61033	0.92266
975.55652	0.92374
973.50272	0.92461
971.44892	0.92597
969.39511	0.92820
967.34131	0.93070
965.28751	0.93286
963.23371	0.93473
961.17990	0.93616
959.12610	0.93718
957.07230	0.93846
955.01849	0.94019
952.96469	0.94177
950.91089	0.94292
948.85708	0.94382
946.80328	0.94434
944.74948	0.94455
942.69567	0.94485
940.64187	0.94480
938.58807	0.94455
936.53426	0.94514
934.48046	0.94640
932.42666	0.94765
930.37285	0.94893
928.31905	0.95009
926.26525	0.95068
924.21144	0.95061
922.15764	0.95074
920.10384	0.95159
918.05003	0.95230
915.99623	0.95219
913.94243	0.95175
911.88862	0.95203
909.83482	0.95300
907.78102	0.95384
905.72722	0.95442
903.67341	0.95486
901.61961	0.95550
899.56581	0.95654
897.51200	0.95801
895.45820	0.95975
893.40440	0.96131
891.35059	0.96240
889.29679	0.96317
887.24299	0.96410
885.18918	0.96504
883.13538	0.96556
881.08158	0.96608
879.02777	0.96626
876.97397	0.96542
874.92017	0.96481
872.86636	0.96575
870.81256	0.96736
868.75876	0.96824
866.70495	0.96854
864.65115	0.96890
862.59735	0.96889
860.54354	0.96834
858.48974	0.96829
856.43594	0.96926
854.38213	0.97041
852.32833	0.97124
850.27453	0.97166
848.22073	0.97126
846.16692	0.97051
844.11312	0.96996
842.05932	0.96898
840.00551	0.96793
837.95171	0.96835
835.89791	0.97009
833.84410	0.97130
831.79030	0.97127
829.73650	0.97098
827.68269	0.97070
825.62889	0.97070
823.57509	0.97138
821.52128	0.97206
819.46748	0.97239
817.41368	0.97252
815.35987	0.97240
813.30607	0.97194
811.25227	0.97090
809.19846	0.96960
807.14466	0.96895
805.09086	0.96818
803.03705	0.96606
800.98325	0.96391
798.92945	0.96283
796.87565	0.96272
794.82184	0.96383
792.76804	0.96507
790.71424	0.96564
788.66043	0.96593
786.60663	0.96562
784.55283	0.96470
782.49902	0.96393
780.44522	0.96380
778.39142	0.96392
776.33761	0.96398
774.28381	0.96399
772.23001	0.96396
770.17620	0.96422
768.12240	0.96453
766.06860	0.96429
764.01479	0.96361
761.96099	0.96297
759.90719	0.96277
757.85338	0.96315
755.79958	0.96377
753.74578	0.96425
751.69197	0.96452
749.63817	0.96435
747.58437	0.96393
745.53056	0.96420
743.47676	0.96518
741.42296	0.96589
739.36916	0.96621
737.31535	0.96645
735.26155	0.96615
733.20775	0.96455
731.15394	0.96200
729.10014	0.96093
727.04634	0.96211
724.99253	0.96302
722.93873	0.96189
720.88493	0.95913
718.83112	0.95698
716.77732	0.95661
714.72352	0.95789
712.66971	0.96064
710.61591	0.96284
708.56211	0.96338
706.50830	0.96285
704.45450	0.96182
702.40070	0.96130
700.34689	0.96141
698.29309	0.96109
696.23929	0.96063
694.18548	0.96069
692.13168	0.96057
690.07788	0.96010
688.02408	0.96024
685.97027	0.96138
683.91647	0.96243
681.86267	0.96219
679.80886	0.96143
677.75506	0.96145
675.70126	0.96183
673.64745	0.96196
671.59365	0.96196
669.53985	0.96151
667.48604	0.96006
665.43224	0.95912
663.37844	0.95895
661.32463	0.95868
659.27083	0.95855
657.21703	0.95886
655.16322	0.95880
653.10942	0.95789
651.05562	0.95684
649.00181	0.95699
646.94801	0.95796
644.89421	0.95802
642.84040	0.95664
640.78660	0.95502
638.73280	0.95522
636.67899	0.95662
634.62519	0.95746
632.57139	0.95786
630.51759	0.95777
628.46378	0.95734
626.40998	0.95751
624.35618	0.95765
622.30237	0.95656
620.24857	0.95515
618.19477	0.95446
616.14096	0.95494
614.08716	0.95642
612.03336	0.95651
609.97955	0.95430
607.92575	0.95196
605.87195	0.95036
603.81814	0.94939
601.76434	0.94908
599.71054	0.94891
597.65673	0.94896
595.60293	0.94889
593.54913	0.94790
591.49532	0.94671
589.44152	0.94664
587.38772	0.94752
585.33391	0.94784
583.28011	0.94702
581.22631	0.94652
579.17250	0.94635
577.11870	0.94536
575.06490	0.94481
573.01110	0.94463
570.95729	0.94351
568.90349	0.94219
566.84969	0.94118
564.79588	0.94138
562.74208	0.94235
560.68828	0.94181
558.63447	0.94043
556.58067	0.93908
554.52687	0.93751
552.47306	0.93668
550.41926	0.93615
548.36546	0.93467
546.31165	0.93205
544.25785	0.92862
542.20405	0.92622
540.15024	0.92546
538.09644	0.92490
536.04264	0.92522
533.98883	0.92561
531.93503	0.92375
529.88123	0.92101
527.82742	0.92022
525.77362	0.92213
523.71982	0.92469
521.66602	0.92631
519.61221	0.92650
517.55841	0.92687
515.50461	0.93021
513.45080	0.93353
511.39700	0.93324
509.34320	0.93138
507.28939	0.93088
505.23559	0.93009
503.18179	0.92797
501.12798	0.92751
499.07418	0.92857
497.02038	0.92913
494.96657	0.92927
492.91277	0.92880
490.85897	0.92740
488.80516	0.92647
486.75136	0.92556
484.69756	0.92102
482.64375	0.91574
480.58995	0.91514
478.53615	0.91465
476.48234	0.90965
474.42854	0.90363
472.37474	0.90045
470.32093	0.89892
468.26713	0.89718
466.21333	0.89707
464.15953	0.89970
462.10572	0.90206
460.05192	0.90225
457.99812	0.90182
455.94431	0.90020
453.89051	0.89954
451.83671	0.90276
449.78290	0.90426
447.72910	0.90199
445.67530	0.90100
443.62149	0.90266
441.56769	0.90386
439.51389	0.90304
437.46008	0.90383
435.40628	0.90771
433.35248	0.91010
431.29867	0.90945
429.24487	0.90933
427.19107	0.90838
425.13726	0.90691
423.08346	0.90888
421.02966	0.90965
418.97585	0.90556
416.92205	0.90337
414.86825	0.90673
412.81445	0.91354
410.76064	0.92003
408.70684	0.91983
406.65304	0.91419
404.59923	0.91123
402.54543	0.91060
400.49163	0.90822
398.43782	0.90264
