3996.70104	0.99205
3994.64724	0.99219
3992.59344	0.99292
3990.53964	0.99334
3988.48583	0.99325
3986.43203	0.99291
3984.37823	0.99252
3982.32442	0.99227
3980.27062	0.99237
3978.21682	0.99268
3976.16301	0.99297
3974.10921	0.99309
3972.05541	0.99322
3970.00160	0.99338
3967.94780	0.99333
3965.89400	0.99332
3963.84019	0.99359
3961.78639	0.99376
3959.73259	0.99332
3957.67878	0.99252
3955.62498	0.99235
3953.57118	0.99313
3951.51737	0.99394
3949.46357	0.99406
3947.40977	0.99387
3945.35596	0.99352
3943.30216	0.99338
3941.24836	0.99378
3939.19455	0.99391
3937.14075	0.99347
3935.08695	0.99298
3933.03315	0.99313
3930.97934	0.99354
3928.92554	0.99314
3926.87174	0.99272
3924.81793	0.99310
3922.76413	0.99338
3920.71033	0.99319
3918.65652	0.99326
3916.60272	0.99368
3914.54892	0.99396
3912.49511	0.99412
3910.44131	0.99420
3908.38751	0.99401
3906.33370	0.99363
3904.27990	0.99338
3902.22610	0.99321
3900.17229	0.99332
3898.11849	0.99384
3896.06469	0.99377
3894.01088	0.99306
3891.95708	0.99297
3889.90328	0.99371
3887.84947	0.99394
3885.79567	0.99345
3883.74187	0.99314
3881.68807	0.99307
3879.63426	0.99261
3877.58046	0.99232
3875.52666	0.99256
3873.47285	0.99289
3871.41905	0.99321
3869.36525	0.99365
3867.31144	0.99376
3865.25764	0.99335
3863.20384	0.99258
3861.15003	0.99207
3859.09623	0.99236
3857.04243	0.99297
3854.98862	0.99298
3852.93482	0.99277
3850.88102	0.99336
3848.82721	0.99332
3846.77341	0.99264
3844.71961	0.99228
3842.66580	0.99268
3840.61200	0.99352
3838.55820	0.99427
3836.50439	0.99418
3834.45059	0.99354
3832.39679	0.99328
3830.34298	0.99340
3828.28918	0.99357
3826.23538	0.99373
3824.18158	0.99372
3822.12777	0.99324
3820.07397	0.99248
3818.02017	0.99250
3815.96636	0.99309
3813.91256	0.99310
3811.85876	0.99279
3809.80495	0.99282
3807.75115	0.99315
3805.69735	0.99384
3803.64354	0.99428
3801.58974	0.99380
3799.53594	0.99310
3797.48213	0.99300
3795.42833	0.99320
3793.37453	0.99360
3791.32072	0.99415
3789.26692	0.99432
3787.21312	0.99391
3785.15931	0.99351
3783.10551	0.99357
3781.05171	0.99373
3778.99790	0.99372
3776.94410	0.99373
3774.89030	0.99376
3772.83650	0.99381
3770.78269	0.99412
3768.72889	0.99403
3766.67509	0.99275
3764.62128	0.99177
3762.56748	0.99258
3760.51368	0.99386
3758.45987	0.99367
3756.40607	0.99271
3754.35227	0.99226
3752.29846	0.99243
3750.24466	0.99304
3748.19086	0.99295
3746.13705	0.99269
3744.08325	0.99327
3742.02945	0.99434
3739.97564	0.99514
3737.92184	0.99520
3735.86804	0.99382
3733.81423	0.99197
3731.76043	0.99137
3729.70663	0.99172
3727.65282	0.99232
3725.59902	0.99256
3723.54522	0.99258
3721.49141	0.99305
3719.43761	0.99353
3717.38381	0.99326
3715.33001	0.99255
3713.27620	0.99212
3711.22240	0.99217
3709.16860	0.99206
3707.11479	0.99184
3705.06099	0.99167
3703.00719	0.99127
3700.95338	0.99101
3698.89958	0.99120
3696.84578	0.99175
3694.79197	0.99216
3692.73817	0.99212
3690.68437	0.99234
3688.63056	0.99262
3686.57676	0.99207
3684.52296	0.99140
3682.46915	0.99095
3680.41535	0.99093
3678.36155	0.99192
3676.30774	0.99348
3674.25394	0.99363
3672.20014	0.99255
3670.14633	0.99187
3668.09253	0.99216
3666.03873	0.99238
3663.98492	0.99201
3661.93112	0.99137
3659.87732	0.99070
3657.82352	0.99048
3655.76971	0.99089
3653.71591	0.99107
3651.66211	0.99077
3649.60830	0.99027
3647.55450	0.98987
3645.50070	0.98990
3643.44689	0.99001
3641.39309	0.99020
3639.33929	0.99079
3637.28548	0.99121
3635.23168	0.99118
3633.17788	0.99104
3631.12407	0.99046
3629.07027	0.98983
3627.01647	0.98990
3624.96266	0.98965
3622.90886	0.98908
3620.85506	0.98883
3618.80125	0.98899
3616.74745	0.98881
3614.69365	0.98873
3612.63984	0.98951
3610.58604	0.99065
3608.53224	0.99128
3606.47844	0.99088
3604.42463	0.98993
3602.37083	0.98942
3600.31703	0.98942
3598.26322	0.98901
3596.20942	0.98825
3594.15562	0.98821
3592.10181	0.98849
3590.04801	0.98834
3587.99421	0.98816
3585.94040	0.98804
3583.88660	0.98772
3581.83280	0.98770
3579.77899	0.98803
3577.72519	0.98823
3575.67139	0.98789
3573.61758	0.98713
3571.56378	0.98680
3569.50998	0.98715
3567.45617	0.98736
3565.40237	0.98734
3563.34857	0.98736
3561.29476	0.98717
3559.24096	0.98704
3557.18716	0.98676
3555.13335	0.98627
3553.07955	0.98595
3551.02575	0.98565
3548.97195	0.98549
3546.91814	0.98544
3544.86434	0.98486
3542.81054	0.98370
3540.75673	0.98277
3538.70293	0.98267
3536.64913	0.98331
3534.59532	0.98400
3532.54152	0.98403
3530.48772	0.98346
3528.43391	0.98298
3526.38011	0.98287
3524.32631	0.98284
3522.27250	0.98313
3520.21870	0.98392
3518.16490	0.98459
3516.11109	0.98465
3514.05729	0.98435
3512.00349	0.98380
3509.94968	0.98286
3507.89588	0.98192
3505.84208	0.98147
3503.78827	0.98152
3501.73447	0.98171
3499.68067	0.98186
3497.62687	0.98225
3495.57306	0.98294
3493.51926	0.98345
3491.46546	0.98358
3489.41165	0.98338
3487.35785	0.98292
3485.30405	0.98244
3483.25024	0.98171
3481.19644	0.98103
3479.14264	0.98127
3477.08883	0.98201
3475.03503	0.98233
3472.98123	0.98224
3470.92742	0.98212
3468.87362	0.98194
3466.81982	0.98194
3464.76601	0.98222
3462.71221	0.98224
3460.65841	0.98179
3458.60460	0.98139
3456.55080	0.98147
3454.49700	0.98164
3452.44319	0.98174
3450.38939	0.98201
3448.33559	0.98228
3446.28178	0.98250
3444.22798	0.98252
3442.17418	0.98212
3440.12038	0.98146
3438.06657	0.98087
3436.01277	0.98078
3433.95897	0.98111
3431.90516	0.98106
3429.85136	0.98058
3427.79756	0.98039
3425.74375	0.98031
3423.68995	0.97987
3421.63615	0.97953
3419.58234	0.97954
3417.52854	0.97954
3415.47474	0.97934
3413.42093	0.97887
3411.36713	0.97824
3409.31333	0.97779
3407.25952	0.97771
3405.20572	0.97761
3403.15192	0.97705
3401.09811	0.97667
3399.04431	0.97696
3396.99051	0.97731
3394.93670	0.97726
3392.88290	0.97696
3390.82910	0.97666
3388.77529	0.97666
3386.72149	0.97698
3384.66769	0.97735
3382.61389	0.97741
3380.56008	0.97712
3378.50628	0.97686
3376.45248	0.97686
3374.39867	0.97704
3372.34487	0.97715
3370.29107	0.97728
3368.23726	0.97777
3366.18346	0.97811
3364.12966	0.97784
3362.07585	0.97776
3360.02205	0.97818
3357.96825	0.97847
3355.91444	0.97854
3353.86064	0.97865
3351.80684	0.97876
3349.75303	0.97893
3347.69923	0.97939
3345.64543	0.97991
3343.59162	0.98006
3341.53782	0.98002
3339.48402	0.98022
3337.43021	0.98053
3335.37641	0.98074
3333.32261	0.98086
3331.26881	0.98099
3329.21500	0.98110
3327.16120	0.98117
3325.10740	0.98137
3323.05359	0.98150
3320.99979	0.98107
3318.94599	0.98080
3316.89218	0.98157
3314.83838	0.98199
3312.78458	0.98122
3310.73077	0.98063
3308.67697	0.98073
3306.62317	0.98095
3304.56936	0.98134
3302.51556	0.98206
3300.46176	0.98233
3298.40795	0.98198
3296.35415	0.98166
3294.30035	0.98142
3292.24654	0.98108
3290.19274	0.98065
3288.13894	0.98034
3286.08513	0.98052
3284.03133	0.98095
3281.97753	0.98101
3279.92372	0.98082
3277.86992	0.98081
3275.81612	0.98110
3273.76232	0.98169
3271.70851	0.98206
3269.65471	0.98183
3267.60091	0.98145
3265.54710	0.98139
3263.49330	0.98161
3261.43950	0.98206
3259.38569	0.98261
3257.33189	0.98281
3255.27809	0.98251
3253.22428	0.98223
3251.17048	0.98226
3249.11668	0.98260
3247.06287	0.98285
3245.00907	0.98249
3242.95527	0.98218
3240.90146	0.98263
3238.84766	0.98328
3236.79386	0.98349
3234.74005	0.98322
3232.68625	0.98267
3230.63245	0.98254
3228.57864	0.98300
3226.52484	0.98346
3224.47104	0.98386
3222.41724	0.98393
3220.36343	0.98356
3218.30963	0.98340
3216.25583	0.98378
3214.20202	0.98415
3212.14822	0.98400
3210.09442	0.98373
3208.04061	0.98385
3205.98681	0.98413
3203.93301	0.98437
3201.87920	0.98478
3199.82540	0.98522
3197.77160	0.98533
3195.71779	0.98532
3193.66399	0.98528
3191.61019	0.98524
3189.55638	0.98527
3187.50258	0.98506
3185.44878	0.98473
3183.39497	0.98469
3181.34117	0.98489
3179.28737	0.98516
3177.23356	0.98551
3175.17976	0.98579
3173.12596	0.98593
3171.07215	0.98575
3169.01835	0.98551
3166.96455	0.98579
3164.91075	0.98631
3162.85694	0.98672
3160.80314	0.98715
3158.74934	0.98738
3156.69553	0.98719
3154.64173	0.98697
3152.58793	0.98698
3150.53412	0.98691
3148.48032	0.98658
3146.42652	0.98637
3144.37271	0.98674
3142.31891	0.98753
3140.26511	0.98788
3138.21130	0.98756
3136.15750	0.98753
3134.10370	0.98821
3132.04989	0.98869
3129.99609	0.98836
3127.94229	0.98772
3125.88848	0.98732
3123.83468	0.98729
3121.78088	0.98762
3119.72707	0.98800
3117.67327	0.98817
3115.61947	0.98831
3113.56566	0.98891
3111.51186	0.98965
3109.45806	0.98978
3107.40426	0.98955
3105.35045	0.98948
3103.29665	0.98931
3101.24285	0.98906
3099.18904	0.98911
3097.13524	0.98937
3095.08144	0.98930
3093.02763	0.98879
3090.97383	0.98855
3088.92003	0.98885
3086.86622	0.98912
3084.81242	0.98903
3082.75862	0.98890
3080.70481	0.98892
3078.65101	0.98906
3076.59721	0.98918
3074.54340	0.98920
3072.48960	0.98922
3070.43580	0.98915
3068.38199	0.98893
3066.32819	0.98891
3064.27439	0.98910
3062.22058	0.98911
3060.16678	0.98901
3058.11298	0.98917
3056.05918	0.98962
3054.00537	0.98984
3051.95157	0.98954
3049.89777	0.98932
3047.84396	0.98945
3045.79016	0.98984
3043.73636	0.99014
3041.68255	0.99008
3039.62875	0.98990
3037.57495	0.98984
3035.52114	0.99013
3033.46734	0.99059
3031.41354	0.99044
3029.35973	0.98982
3027.30593	0.98962
3025.25213	0.98985
3023.19832	0.99008
3021.14452	0.99004
3019.09072	0.98984
3017.03691	0.98967
3014.98311	0.98959
3012.92931	0.98975
3010.87550	0.99008
3008.82170	0.99024
3006.76790	0.98988
3004.71409	0.98924
3002.66029	0.98890
3000.60649	0.98901
2998.55269	0.98933
2996.49888	0.98980
2994.44508	0.99011
2992.39128	0.98989
2990.33747	0.98966
2988.28367	0.98988
2986.22987	0.99002
2984.17606	0.98981
2982.12226	0.98960
2980.06846	0.98946
2978.01465	0.98946
2975.96085	0.98979
2973.90705	0.99011
2971.85324	0.98994
2969.79944	0.98949
2967.74564	0.98940
2965.69183	0.98970
2963.63803	0.98997
2961.58423	0.99000
2959.53042	0.98970
2957.47662	0.98927
2955.42282	0.98917
2953.36901	0.98945
2951.31521	0.98977
2949.26141	0.98965
2947.20761	0.98927
2945.15380	0.98915
2943.10000	0.98898
2941.04620	0.98861
2938.99239	0.98823
2936.93859	0.98788
2934.88479	0.98777
2932.83098	0.98780
2930.77718	0.98775
2928.72338	0.98774
2926.66957	0.98764
2924.61577	0.98728
2922.56197	0.98687
2920.50816	0.98666
2918.45436	0.98675
2916.40056	0.98739
2914.34675	0.98832
2912.29295	0.98884
2910.23915	0.98887
2908.18534	0.98883
2906.13154	0.98915
2904.07774	0.98963
2902.02393	0.98972
2899.97013	0.98960
2897.91633	0.98941
2895.86252	0.98911
2893.80872	0.98912
2891.75492	0.98967
2889.70112	0.99029
2887.64731	0.99043
2885.59351	0.99018
2883.53971	0.99020
2881.48590	0.99053
2879.43210	0.99067
2877.37830	0.99046
2875.32449	0.99023
2873.27069	0.99013
2871.21689	0.99008
2869.16308	0.99018
2867.10928	0.99037
2865.05548	0.99047
2863.00167	0.99048
2860.94787	0.99018
2858.89407	0.98976
2856.84026	0.98961
2854.78646	0.98956
2852.73266	0.98934
2850.67885	0.98898
2848.62505	0.98875
2846.57125	0.98903
2844.51744	0.98971
2842.46364	0.99040
2840.40984	0.99059
2838.35603	0.99049
2836.30223	0.99054
2834.24843	0.99055
2832.19463	0.99055
2830.14082	0.99076
2828.08702	0.99079
2826.03322	0.99049
2823.97941	0.99040
2821.92561	0.99072
2819.87181	0.99111
2817.81800	0.99123
2815.76420	0.99109
2813.71040	0.99091
2811.65659	0.99092
2809.60279	0.99112
2807.54899	0.99124
2805.49518	0.99132
2803.44138	0.99143
2801.38758	0.99151
2799.33377	0.99157
2797.27997	0.99144
2795.22617	0.99101
2793.17236	0.99084
2791.11856	0.99128
2789.06476	0.99163
2787.01095	0.99141
2784.95715	0.99119
2782.90335	0.99126
2780.84955	0.99122
2778.79574	0.99124
2776.74194	0.99153
2774.68814	0.99162
2772.63433	0.99150
2770.58053	0.99154
2768.52673	0.99145
2766.47292	0.99120
2764.41912	0.99136
2762.36532	0.99162
2760.31151	0.99148
2758.25771	0.99129
2756.20391	0.99131
2754.15010	0.99138
2752.09630	0.99144
2750.04250	0.99138
2747.98869	0.99129
2745.93489	0.99147
2743.88109	0.99182
2741.82728	0.99195
2739.77348	0.99203
2737.71968	0.99219
2735.66587	0.99211
2733.61207	0.99179
2731.55827	0.99153
2729.50446	0.99153
2727.45066	0.99179
2725.39686	0.99206
2723.34306	0.99199
2721.28925	0.99176
2719.23545	0.99183
2717.18165	0.99203
2715.12784	0.99200
2713.07404	0.99175
2711.02024	0.99130
2708.96643	0.99097
2706.91263	0.99097
2704.85883	0.99111
2702.80502	0.99106
2700.75122	0.99087
2698.69742	0.99107
2696.64361	0.99160
2694.58981	0.99184
2692.53601	0.99169
2690.48220	0.99151
2688.42840	0.99149
2686.37460	0.99177
2684.32079	0.99204
2682.26699	0.99204
2680.21319	0.99187
2678.15938	0.99165
2676.10558	0.99155
2674.05178	0.99153
2671.99797	0.99136
2669.94417	0.99113
2667.89037	0.99110
2665.83657	0.99121
2663.78276	0.99129
2661.72896	0.99126
2659.67516	0.99111
2657.62135	0.99084
2655.56755	0.99051
2653.51375	0.99054
2651.45994	0.99076
2649.40614	0.99055
2647.35234	0.99026
2645.29853	0.99043
2643.24473	0.99075
2641.19093	0.99071
2639.13712	0.99045
2637.08332	0.99032
2635.02952	0.99044
2632.97571	0.99069
2630.92191	0.99083
2628.86811	0.99078
2626.81430	0.99074
2624.76050	0.99093
2622.70670	0.99107
2620.65289	0.99101
2618.59909	0.99128
2616.54529	0.99172
2614.49149	0.99168
2612.43768	0.99134
2610.38388	0.99115
2608.33008	0.99092
2606.27627	0.99080
2604.22247	0.99089
2602.16867	0.99077
2600.11486	0.99037
2598.06106	0.99011
2596.00726	0.99053
2593.95345	0.99163
2591.89965	0.99228
2589.84585	0.99181
2587.79204	0.99121
2585.73824	0.99096
2583.68444	0.99054
2581.63063	0.99028
2579.57683	0.99033
2577.52303	0.99033
2575.46922	0.99042
2573.41542	0.99056
2571.36162	0.99056
2569.30781	0.99069
2567.25401	0.99108
2565.20021	0.99182
2563.14640	0.99266
2561.09260	0.99293
2559.03880	0.99247
2556.98500	0.99158
2554.93119	0.99095
2552.87739	0.99097
2550.82359	0.99090
2548.76978	0.99037
2546.71598	0.98999
2544.66218	0.99014
2542.60837	0.99058
2540.55457	0.99064
2538.50077	0.99054
2536.44696	0.99090
2534.39316	0.99090
2532.33936	0.99055
2530.28555	0.99051
2528.23175	0.99030
2526.17795	0.99015
2524.12414	0.99042
2522.07034	0.99058
2520.01654	0.99083
2517.96273	0.99108
2515.90893	0.99041
2513.85513	0.98968
2511.80132	0.99005
2509.74752	0.99073
2507.69372	0.99078
2505.63992	0.99062
2503.58611	0.99082
2501.53231	0.99099
2499.47851	0.99082
2497.42470	0.99051
2495.37090	0.99046
2493.31710	0.99101
2491.26329	0.99131
2489.20949	0.99055
2487.15569	0.98977
2485.10188	0.99011
2483.04808	0.99094
2480.99428	0.99128
2478.94047	0.99148
2476.88667	0.99222
2474.83287	0.99292
2472.77906	0.99276
2470.72526	0.99225
2468.67146	0.99208
2466.61765	0.99207
2464.56385	0.99213
2462.51005	0.99251
2460.45624	0.99288
2458.40244	0.99264
2456.34864	0.99210
2454.29483	0.99219
2452.24103	0.99283
2450.18723	0.99313
2448.13343	0.99300
2446.07962	0.99299
2444.02582	0.99293
2441.97202	0.99217
2439.91821	0.99142
2437.86441	0.99169
2435.81061	0.99222
2433.75680	0.99204
2431.70300	0.99140
2429.64920	0.99072
2427.59539	0.99051
2425.54159	0.99100
2423.48779	0.99135
2421.43398	0.99165
2419.38018	0.99269
2417.32638	0.99349
2415.27257	0.99318
2413.21877	0.99259
2411.16497	0.99231
2409.11116	0.99246
2407.05736	0.99263
2405.00356	0.99242
2402.94975	0.99225
2400.89595	0.99251
2398.84215	0.99300
2396.78834	0.99314
2394.73454	0.99276
2392.68074	0.99243
2390.62694	0.99279
2388.57313	0.99318
2386.51933	0.99298
2384.46553	0.99280
2382.41172	0.99293
2380.35792	0.99317
2378.30412	0.99337
2376.25031	0.99338
2374.19651	0.99282
2372.14271	0.99162
2370.08890	0.99079
2368.03510	0.99105
2365.98130	0.99177
2363.92749	0.99171
2361.87369	0.99075
2359.81989	0.99010
2357.76608	0.99037
2355.71228	0.99080
2353.65848	0.99073
2351.60467	0.99065
2349.55087	0.99098
2347.49707	0.99152
2345.44326	0.99196
2343.38946	0.99195
2341.33566	0.99138
2339.28186	0.99081
2337.22805	0.99069
2335.17425	0.99086
2333.12045	0.99164
2331.06664	0.99267
2329.01284	0.99255
2326.95904	0.99111
2324.90523	0.98940
2322.85143	0.98853
2320.79763	0.98884
2318.74382	0.98942
2316.69002	0.98995
2314.63622	0.99055
2312.58241	0.99069
2310.52861	0.99036
2308.47481	0.99016
2306.42100	0.99009
2304.36720	0.99008
2302.31340	0.99027
2300.25959	0.99037
2298.20579	0.98986
2296.15199	0.98895
2294.09818	0.98842
2292.04438	0.98848
2289.99058	0.98871
2287.93677	0.98874
2285.88297	0.98893
2283.82917	0.99004
2281.77537	0.99100
2279.72156	0.99055
2277.66776	0.98961
2275.61396	0.98867
2273.56015	0.98794
2271.50635	0.98842
2269.45255	0.98963
2267.39874	0.99027
2265.34494	0.99025
2263.29114	0.99002
2261.23733	0.98968
2259.18353	0.98988
2257.12973	0.99110
2255.07592	0.99224
2253.02212	0.99171
2250.96832	0.99003
2248.91451	0.98954
2246.86071	0.99038
2244.80691	0.99037
2242.75310	0.98907
2240.69930	0.98808
2238.64550	0.98871
2236.59169	0.99068
2234.53789	0.99224
2232.48409	0.99280
2230.43029	0.99333
2228.37648	0.99338
2226.32268	0.99236
2224.26888	0.99132
2222.21507	0.99071
2220.16127	0.99097
2218.10747	0.99164
2216.05366	0.99157
2213.99986	0.99129
2211.94606	0.99055
2209.89225	0.98940
2207.83845	0.98972
2205.78465	0.99130
2203.73084	0.99161
2201.67704	0.98953
2199.62324	0.98661
2197.56943	0.98547
2195.51563	0.98588
2193.46183	0.98596
2191.40802	0.98673
2189.35422	0.98826
2187.30042	0.98825
2185.24661	0.98752
2183.19281	0.98893
2181.13901	0.99093
2179.08520	0.99035
2177.03140	0.98900
2174.97760	0.98881
2172.92380	0.98836
2170.86999	0.98781
2168.81619	0.98875
2166.76239	0.99028
2164.70858	0.99076
2162.65478	0.98945
2160.60098	0.98827
2158.54717	0.99138
2156.49337	0.99444
2154.43957	0.99372
2152.38576	0.99281
2150.33196	0.99261
2148.27816	0.99269
2146.22435	0.99270
2144.17055	0.99261
2142.11675	0.99235
2140.06294	0.99206
2138.00914	0.99255
2135.95534	0.99338
2133.90153	0.99457
2131.84773	0.99508
2129.79393	0.99391
2127.74012	0.99289
2125.68632	0.99261
2123.63252	0.99217
2121.57871	0.99202
2119.52491	0.99228
2117.47111	0.99209
2115.41731	0.99137
2113.36350	0.99087
2111.30970	0.99097
2109.25590	0.99117
2107.20209	0.99137
2105.14829	0.99207
2103.09449	0.99228
2101.04068	0.99123
2098.98688	0.99074
2096.93308	0.99242
2094.87927	0.99453
2092.82547	0.99433
2090.77167	0.99288
2088.71786	0.99253
2086.66406	0.99176
2084.61026	0.98963
2082.55645	0.98885
2080.50265	0.99073
2078.44885	0.99300
2076.39504	0.99319
2074.34124	0.99269
2072.28744	0.99356
2070.23363	0.99463
2068.17983	0.99474
2066.12603	0.99443
2064.07223	0.99383
2062.01842	0.99256
2059.96462	0.99070
2057.91082	0.98908
2055.85701	0.99007
2053.80321	0.99278
2051.74941	0.99353
2049.69560	0.99361
2047.64180	0.99355
2045.58800	0.99135
2043.53419	0.98969
2041.48039	0.98993
2039.42659	0.99018
2037.37278	0.99058
2035.31898	0.99175
2033.26518	0.99278
2031.21137	0.99338
2029.15757	0.99414
2027.10377	0.99529
2025.04996	0.99648
2022.99616	0.99552
2020.94236	0.99242
2018.88855	0.99083
2016.83475	0.99202
2014.78095	0.99445
2012.72714	0.99541
2010.67334	0.99399
2008.61954	0.99298
2006.56574	0.99219
2004.51193	0.98999
2002.45813	0.98887
2000.40433	0.99091
1998.35052	0.99362
1996.29672	0.99367
1994.24292	0.99292
1992.18911	0.99329
1990.13531	0.99303
1988.08151	0.99193
1986.02770	0.99079
1983.97390	0.99013
1981.92010	0.98997
1979.86629	0.98999
1977.81249	0.99145
1975.75869	0.99331
1973.70488	0.99374
1971.65108	0.99421
1969.59728	0.99371
1967.54347	0.99119
1965.48967	0.99111
1963.43587	0.99515
1961.38206	0.99830
1959.32826	0.99785
1957.27446	0.99523
1955.22066	0.99246
1953.16685	0.99046
1951.11305	0.98865
1949.05925	0.98797
1947.00544	0.98929
1944.95164	0.99108
1942.89784	0.99205
1940.84403	0.99218
1938.79023	0.99235
1936.73643	0.99288
1934.68262	0.99317
1932.62882	0.99300
1930.57502	0.99262
1928.52121	0.99268
1926.46741	0.99364
1924.41361	0.99457
1922.35980	0.99390
1920.30600	0.99260
1918.25220	0.99238
1916.19839	0.99225
1914.14459	0.99164
1912.09079	0.99131
1910.03698	0.99171
1907.98318	0.99284
1905.92938	0.99379
1903.87557	0.99391
1901.82177	0.99358
1899.76797	0.99299
1897.71417	0.99264
1895.66036	0.99266
1893.60656	0.99214
1891.55276	0.99140
1889.49895	0.99129
1887.44515	0.99157
1885.39135	0.99199
1883.33754	0.99249
1881.28374	0.99236
1879.22994	0.99188
1877.17613	0.99225
1875.12233	0.99256
1873.06853	0.99205
1871.01472	0.99186
1868.96092	0.99199
1866.90712	0.99173
1864.85331	0.99187
1862.79951	0.99252
1860.74571	0.99275
1858.69190	0.99243
1856.63810	0.99264
1854.58430	0.99360
1852.53049	0.99410
1850.47669	0.99375
1848.42289	0.99330
1846.36908	0.99326
1844.31528	0.99322
1842.26148	0.99271
1840.20768	0.99248
1838.15387	0.99273
1836.10007	0.99289
1834.04627	0.99305
1831.99246	0.99340
1829.93866	0.99313
1827.88486	0.99203
1825.83105	0.99144
1823.77725	0.99196
1821.72345	0.99259
1819.66964	0.99295
1817.61584	0.99364
1815.56204	0.99395
1813.50823	0.99334
1811.45443	0.99295
1809.40063	0.99330
1807.34682	0.99348
1805.29302	0.99326
1803.23922	0.99294
1801.18541	0.99217
1799.13161	0.99139
1797.07781	0.99127
1795.02400	0.99116
1792.97020	0.99070
1790.91640	0.99002
1788.86260	0.98948
1786.80879	0.98920
1784.75499	0.98890
1782.70119	0.98852
1780.64738	0.98867
1778.59358	0.98961
1776.53978	0.99095
1774.48597	0.99227
1772.43217	0.99293
1770.37837	0.99264
1768.32456	0.99221
1766.27076	0.99203
1764.21696	0.99227
1762.16315	0.99275
1760.10935	0.99285
1758.05555	0.99272
1756.00174	0.99265
1753.94794	0.99238
1751.89414	0.99233
1749.84033	0.99268
1747.78653	0.99277
1745.73273	0.99282
1743.67892	0.99269
1741.62512	0.99208
1739.57132	0.99163
1737.51751	0.99156
1735.46371	0.99166
1733.40991	0.99215
1731.35611	0.99252
1729.30230	0.99232
1727.24850	0.99182
1725.19470	0.99146
1723.14089	0.99144
1721.08709	0.99151
1719.03329	0.99141
1716.97948	0.99162
1714.92568	0.99201
1712.87188	0.99193
1710.81807	0.99158
1708.76427	0.99110
1706.71047	0.99062
1704.65666	0.99044
1702.60286	0.99077
1700.54906	0.99106
1698.49525	0.99036
1696.44145	0.98942
1694.38765	0.98901
1692.33384	0.98883
1690.28004	0.98844
1688.22624	0.98794
1686.17243	0.98761
1684.11863	0.98703
1682.06483	0.98610
1680.01103	0.98553
1677.95722	0.98531
1675.90342	0.98532
1673.84962	0.98550
1671.79581	0.98569
1669.74201	0.98568
1667.68821	0.98558
1665.63440	0.98570
1663.58060	0.98582
1661.52680	0.98548
1659.47299	0.98481
1657.41919	0.98408
1655.36539	0.98324
1653.31158	0.98159
1651.25778	0.97979
1649.20398	0.97912
1647.15017	0.97868
1645.09637	0.97806
1643.04257	0.97799
1640.98876	0.97877
1638.93496	0.97983
1636.88116	0.98064
1634.82735	0.98139
1632.77355	0.98207
1630.71975	0.98235
1628.66594	0.98192
1626.61214	0.98093
1624.55834	0.98034
1622.50454	0.98018
1620.45073	0.97977
1618.39693	0.97935
1616.34313	0.97974
1614.28932	0.98085
1612.23552	0.98172
1610.18172	0.98219
1608.12791	0.98249
1606.07411	0.98299
1604.02031	0.98363
1601.96650	0.98398
1599.91270	0.98419
1597.85890	0.98457
1595.80509	0.98488
1593.75129	0.98498
1591.69749	0.98490
1589.64368	0.98456
1587.58988	0.98401
1585.53608	0.98319
1583.48227	0.98212
1581.42847	0.98108
1579.37467	0.98001
1577.32086	0.97803
1575.26706	0.97494
1573.21326	0.97297
1571.15945	0.97170
1569.10565	0.97008
1567.05185	0.96873
1564.99805	0.96777
1562.94424	0.96710
1560.89044	0.96654
1558.83664	0.96486
1556.78283	0.96311
1554.72903	0.96234
1552.67523	0.96159
1550.62142	0.96074
1548.56762	0.95971
1546.51382	0.95898
1544.46001	0.95840
1542.40621	0.95754
1540.35241	0.95617
1538.29860	0.95484
1536.24480	0.95426
1534.19100	0.95374
1532.13719	0.95308
1530.08339	0.95255
1528.02959	0.95213
1525.97578	0.95189
1523.92198	0.95181
1521.86818	0.95109
1519.81437	0.95009
1517.76057	0.94973
1515.70677	0.94921
1513.65297	0.94846
1511.59916	0.94781
1509.54536	0.94736
1507.49156	0.94681
1505.43775	0.94547
1503.38395	0.94429
1501.33015	0.94350
1499.27634	0.94294
1497.22254	0.94224
1495.16874	0.94135
1493.11493	0.94086
1491.06113	0.94052
1489.00733	0.93972
1486.95352	0.93851
1484.89972	0.93721
1482.84592	0.93582
1480.79211	0.93428
1478.73831	0.93283
1476.68451	0.93197
1474.63070	0.93173
1472.57690	0.93123
1470.52310	0.93022
1468.46929	0.92936
1466.41549	0.92861
1464.36169	0.92784
1462.30788	0.92747
1460.25408	0.92757
1458.20028	0.92775
1456.14648	0.92737
1454.09267	0.92667
1452.03887	0.92609
1449.98507	0.92543
1447.93126	0.92453
1445.87746	0.92369
1443.82366	0.92323
1441.76985	0.92293
1439.71605	0.92272
1437.66225	0.92248
1435.60844	0.92198
1433.55464	0.92164
1431.50084	0.92164
1429.44703	0.92184
1427.39323	0.92211
1425.33943	0.92243
1423.28562	0.92277
1421.23182	0.92321
1419.17802	0.92363
1417.12421	0.92345
1415.07041	0.92309
1413.01661	0.92332
1410.96280	0.92389
1408.90900	0.92415
1406.85520	0.92418
1404.80139	0.92425
1402.74759	0.92414
1400.69379	0.92403
1398.63999	0.92433
1396.58618	0.92486
1394.53238	0.92506
1392.47858	0.92511
1390.42477	0.92534
1388.37097	0.92548
1386.31717	0.92548
1384.26336	0.92545
1382.20956	0.92488
1380.15576	0.92359
1378.10195	0.92229
1376.04815	0.92181
1373.99435	0.92238
1371.94054	0.92322
1369.88674	0.92355
1367.83294	0.92325
1365.77913	0.92286
1363.72533	0.92304
1361.67153	0.92390
1359.61772	0.92492
1357.56392	0.92541
1355.51012	0.92558
1353.45631	0.92606
1351.40251	0.92651
1349.34871	0.92672
1347.29491	0.92714
1345.24110	0.92772
1343.18730	0.92801
1341.13350	0.92785
1339.07969	0.92744
1337.02589	0.92729
1334.97209	0.92745
1332.91828	0.92761
1330.86448	0.92753
1328.81068	0.92727
1326.75687	0.92732
1324.70307	0.92787
1322.64927	0.92820
1320.59546	0.92812
1318.54166	0.92807
1316.48786	0.92787
1314.43405	0.92740
1312.38025	0.92728
1310.32645	0.92765
1308.27264	0.92815
1306.21884	0.92863
1304.16504	0.92884
1302.11123	0.92890
1300.05743	0.92903
1298.00363	0.92906
1295.94982	0.92903
1293.89602	0.92911
1291.84222	0.92922
1289.78842	0.92930
1287.73461	0.92935
1285.68081	0.92938
1283.62701	0.92931
1281.57320	0.92935
1279.51940	0.92957
1277.46560	0.92964
1275.41179	0.92964
1273.35799	0.92977
1271.30419	0.92992
1269.25038	0.93003
1267.19658	0.93009
1265.14278	0.93011
1263.08897	0.93013
1261.03517	0.92992
1258.98137	0.92945
1256.92756	0.92907
1254.87376	0.92880
1252.81996	0.92873
1250.76615	0.92886
1248.71235	0.92907
1246.65855	0.92944
1244.60474	0.92995
1242.55094	0.93021
1240.49714	0.93027
1238.44334	0.93035
1236.38953	0.93037
1234.33573	0.93056
1232.28193	0.93093
1230.22812	0.93102
1228.17432	0.93093
1226.12052	0.93104
1224.06671	0.93139
1222.01291	0.93158
1219.95911	0.93133
1217.90530	0.93091
1215.85150	0.93065
1213.79770	0.93063
1211.74389	0.93088
1209.69009	0.93140
1207.63629	0.93189
1205.58248	0.93184
1203.52868	0.93125
1201.47488	0.93073
1199.42107	0.93051
1197.36727	0.93016
1195.31347	0.92965
1193.25966	0.92919
1191.20586	0.92879
1189.15206	0.92851
1187.09825	0.92829
1185.04445	0.92791
1182.99065	0.92725
1180.93685	0.92647
1178.88304	0.92582
1176.82924	0.92508
1174.77544	0.92411
1172.72163	0.92329
1170.66783	0.92280
1168.61403	0.92242
1166.56022	0.92181
1164.50642	0.92108
1162.45262	0.92042
1160.39881	0.91981
1158.34501	0.91929
1156.29121	0.91850
1154.23740	0.91725
1152.18360	0.91623
1150.12980	0.91567
1148.07599	0.91489
1146.02219	0.91364
1143.96839	0.91247
1141.91458	0.91150
1139.86078	0.91068
1137.80698	0.91020
1135.75317	0.90978
1133.69937	0.90872
1131.64557	0.90714
1129.59176	0.90587
1127.53796	0.90508
1125.48416	0.90453
1123.43036	0.90410
1121.37655	0.90346
1119.32275	0.90269
1117.26895	0.90233
1115.21514	0.90225
1113.16134	0.90176
1111.10754	0.90102
1109.05373	0.90068
1106.99993	0.90043
1104.94613	0.90004
1102.89232	0.89986
1100.83852	0.89986
1098.78472	0.89999
1096.73091	0.90072
1094.67711	0.90167
1092.62331	0.90200
1090.56950	0.90203
1088.51570	0.90213
1086.46190	0.90078
1084.40809	0.89579
1082.35429	0.89079
1080.30049	0.89142
1078.24668	0.89526
1076.19288	0.89771
1074.13908	0.89876
1072.08528	0.89938
1070.03147	0.89979
1067.97767	0.90003
1065.92387	0.89988
1063.87006	0.89983
1061.81626	0.90024
1059.76246	0.90046
1057.70865	0.90018
1055.65485	0.89959
1053.60105	0.89902
1051.54724	0.89867
1049.49344	0.89851
1047.43964	0.89836
1045.38583	0.89803
1043.33203	0.89766
1041.27823	0.89726
1039.22442	0.89690
1037.17062	0.89665
1035.11682	0.89627
1033.06301	0.89585
1031.00921	0.89596
1028.95541	0.89657
1026.90160	0.89717
1024.84780	0.89766
1022.79400	0.89845
1020.74019	0.89916
1018.68639	0.89931
1016.63259	0.89956
1014.57879	0.89993
1012.52498	0.89998
1010.47118	0.90000
1008.41738	0.90019
1006.36357	0.90080
1004.30977	0.90167
1002.25597	0.90231
1000.20216	0.90309
998.14836	0.90433
996.09456	0.90547
994.04075	0.90635
991.98695	0.90732
989.93315	0.90835
987.87934	0.90953
985.82554	0.91087
983.77174	0.91235
981.71793	0.91400
979.66413	0.91508
977.61033	0.91565
975.55652	0.91665
973.50272	0.91799
971.44892	0.91911
969.39511	0.91985
967.34131	0.92057
965.28751	0.92156
963.23371	0.92260
961.17990	0.92364
959.12610	0.92457
957.07230	0.92532
955.01849	0.92630
952.96469	0.92730
950.91089	0.92785
948.85708	0.92813
946.80328	0.92844
944.74948	0.92870
942.69567	0.92872
940.64187	0.92871
938.58807	0.92906
936.53426	0.92984
934.48046	0.93091
932.42666	0.93198
930.37285	0.93251
928.31905	0.93241
926.26525	0.93240
924.21144	0.93296
922.15764	0.93373
920.10384	0.93436
918.05003	0.93484
915.99623	0.93499
913.94243	0.93480
911.88862	0.93476
909.83482	0.93474
907.78102	0.93490
905.72722	0.93607
903.67341	0.93760
901.61961	0.93854
899.56581	0.93907
897.51200	0.93970
895.45820	0.94094
893.40440	0.94252
891.35059	0.94351
889.29679	0.94372
887.24299	0.94376
885.18918	0.94416
883.13538	0.94502
881.08158	0.94598
879.02777	0.94602
876.97397	0.94307
874.92017	0.93499
872.86636	0.92224
870.81256	0.90793
868.75876	0.89532
866.70495	0.88560
864.65115	0.87821
862.59735	0.87292
860.54354	0.86995
858.48974	0.86828
856.43594	0.86651
854.38213	0.86500
852.32833	0.86532
850.27453	0.86787
848.22073	0.87141
846.16692	0.87450
844.11312	0.87581
842.05932	0.87598
840.00551	0.87723
837.95171	0.87934
835.89791	0.88117
833.84410	0.88308
831.79030	0.88493
829.73650	0.88633
827.68269	0.88814
825.62889	0.89092
823.57509	0.89413
821.52128	0.89732
819.46748	0.90055
817.41368	0.90393
815.35987	0.90730
813.30607	0.90992
811.25227	0.91172
809.19846	0.91366
807.14466	0.91584
805.09086	0.91797
803.03705	0.92038
800.98325	0.92259
798.92945	0.92395
796.87565	0.92532
794.82184	0.92730
792.76804	0.92926
790.71424	0.93078
788.66043	0.93175
786.60663	0.93259
784.55283	0.93390
782.49902	0.93545
780.44522	0.93639
778.39142	0.93668
776.33761	0.93695
774.28381	0.93771
772.23001	0.93901
770.17620	0.93992
768.12240	0.94042
766.06860	0.94183
764.01479	0.94383
761.96099	0.94514
759.90719	0.94580
757.85338	0.94629
755.79958	0.94670
753.74578	0.94715
751.69197	0.94797
749.63817	0.94977
747.58437	0.95188
745.53056	0.95263
743.47676	0.95213
741.42296	0.95194
739.36916	0.95295
737.31535	0.95430
735.26155	0.95494
733.20775	0.95569
731.15394	0.95696
729.10014	0.95747
727.04634	0.95761
724.99253	0.95900
722.93873	0.96105
720.88493	0.96101
718.83112	0.95699
716.77732	0.94690
714.72352	0.92652
712.66971	0.90334
710.61591	0.89608
708.56211	0.90659
706.50830	0.92088
704.45450	0.92938
702.40070	0.92604
700.34689	0.91169
698.29309	0.90153
696.23929	0.90531
694.18548	0.91498
692.13168	0.92245
690.07788	0.92698
688.02408	0.92958
685.97027	0.93069
683.91647	0.93084
681.86267	0.93133
679.80886	0.93191
677.75506	0.93167
675.70126	0.93154
673.64745	0.93177
671.59365	0.93098
669.53985	0.92935
667.48604	0.93028
665.43224	0.93391
663.37844	0.93654
661.32463	0.93795
659.27083	0.93897
657.21703	0.93983
655.16322	0.94065
653.10942	0.94189
651.05562	0.94365
649.00181	0.94554
646.94801	0.94704
644.89421	0.94772
642.84040	0.94734
640.78660	0.94620
638.73280	0.94519
636.67899	0.94463
634.62519	0.94387
632.57139	0.94307
630.51759	0.94313
628.46378	0.94385
626.40998	0.94415
624.35618	0.94374
622.30237	0.94336
620.24857	0.94370
618.19477	0.94356
616.14096	0.94187
614.08716	0.94072
612.03336	0.94042
609.97955	0.93919
607.92575	0.93783
605.87195	0.93694
603.81814	0.93601
601.76434	0.93591
599.71054	0.93649
597.65673	0.93646
595.60293	0.93582
593.54913	0.93483
591.49532	0.93471
589.44152	0.93655
587.38772	0.93789
585.33391	0.93689
583.28011	0.93552
581.22631	0.93473
579.17250	0.93412
577.11870	0.93469
575.06490	0.93714
573.01110	0.94007
570.95729	0.94121
568.90349	0.94106
566.84969	0.94073
564.79588	0.93985
562.74208	0.93899
560.68828	0.93824
558.63447	0.93762
556.58067	0.93840
554.52687	0.94058
552.47306	0.94209
550.41926	0.94211
548.36546	0.94155
546.31165	0.94120
544.25785	0.94109
542.20405	0.94165
540.15024	0.94245
538.09644	0.94197
536.04264	0.94114
533.98883	0.94148
531.93503	0.94223
529.88123	0.94192
527.82742	0.94140
525.77362	0.94178
523.71982	0.94182
521.66602	0.94236
519.61221	0.94507
517.55841	0.94628
515.50461	0.94444
513.45080	0.94475
511.39700	0.94729
509.34320	0.94862
507.28939	0.94870
505.23559	0.94878
503.18179	0.94785
501.12798	0.94671
499.07418	0.94900
497.02038	0.95166
494.96657	0.94942
492.91277	0.94521
490.85897	0.94439
488.80516	0.94501
486.75136	0.94462
484.69756	0.94401
482.64375	0.94297
480.58995	0.94157
478.53615	0.94025
476.48234	0.93875
474.42854	0.93742
472.37474	0.93747
470.32093	0.93822
468.26713	0.93832
466.21333	0.93891
464.15953	0.93963
462.10572	0.93813
460.05192	0.93305
457.99812	0.92645
455.94431	0.92465
453.89051	0.92903
451.83671	0.93497
449.78290	0.93766
447.72910	0.93662
445.67530	0.93418
443.62149	0.93224
441.56769	0.93309
439.51389	0.93538
437.46008	0.93597
435.40628	0.93598
433.35248	0.93572
431.29867	0.93523
429.24487	0.93912
427.19107	0.94417
425.13726	0.94177
423.08346	0.93565
421.02966	0.93433
418.97585	0.93410
416.92205	0.93066
414.86825	0.93242
412.81445	0.93738
410.76064	0.93972
408.70684	0.94022
406.65304	0.94104
404.59923	0.94306
402.54543	0.94294
400.49163	0.93885
398.43782	0.93470
