3996.70104	0.99510
3994.64724	0.99557
3992.59344	0.99537
3990.53964	0.99495
3988.48583	0.99484
3986.43203	0.99485
3984.37823	0.99444
3982.32442	0.99401
3980.27062	0.99407
3978.21682	0.99417
3976.16301	0.99397
3974.10921	0.99391
3972.05541	0.99419
3970.00160	0.99419
3967.94780	0.99390
3965.89400	0.99408
3963.84019	0.99480
3961.78639	0.99525
3959.73259	0.99515
3957.67878	0.99492
3955.62498	0.99481
3953.57118	0.99465
3951.51737	0.99450
3949.46357	0.99470
3947.40977	0.99494
3945.35596	0.99494
3943.30216	0.99486
3941.24836	0.99479
3939.19455	0.99477
3937.14075	0.99479
3935.08695	0.99497
3933.03315	0.99538
3930.97934	0.99565
3928.92554	0.99520
3926.87174	0.99440
3924.81793	0.99457
3922.76413	0.99548
3920.71033	0.99569
3918.65652	0.99565
3916.60272	0.99562
3914.54892	0.99500
3912.49511	0.99444
3910.44131	0.99464
3908.38751	0.99506
3906.33370	0.99483
3904.27990	0.99427
3902.22610	0.99436
3900.17229	0.99474
3898.11849	0.99495
3896.06469	0.99521
3894.01088	0.99553
3891.95708	0.99552
3889.90328	0.99491
3887.84947	0.99450
3885.79567	0.99474
3883.74187	0.99485
3881.68807	0.99457
3879.63426	0.99446
3877.58046	0.99460
3875.52666	0.99478
3873.47285	0.99485
3871.41905	0.99485
3869.36525	0.99489
3867.31144	0.99493
3865.25764	0.99492
3863.20384	0.99479
3861.15003	0.99465
3859.09623	0.99473
3857.04243	0.99520
3854.98862	0.99568
3852.93482	0.99527
3850.88102	0.99467
3848.82721	0.99464
3846.77341	0.99495
3844.71961	0.99548
3842.66580	0.99575
3840.61200	0.99529
3838.55820	0.99399
3836.50439	0.99328
3834.45059	0.99404
3832.39679	0.99514
3830.34298	0.99554
3828.28918	0.99499
3826.23538	0.99457
3824.18158	0.99494
3822.12777	0.99528
3820.07397	0.99524
3818.02017	0.99548
3815.96636	0.99528
3813.91256	0.99443
3811.85876	0.99427
3809.80495	0.99484
3807.75115	0.99558
3805.69735	0.99630
3803.64354	0.99651
3801.58974	0.99591
3799.53594	0.99550
3797.48213	0.99546
3795.42833	0.99525
3793.37453	0.99493
3791.32072	0.99460
3789.26692	0.99452
3787.21312	0.99470
3785.15931	0.99505
3783.10551	0.99512
3781.05171	0.99458
3778.99790	0.99428
3776.94410	0.99458
3774.89030	0.99473
3772.83650	0.99457
3770.78269	0.99448
3768.72889	0.99479
3766.67509	0.99517
3764.62128	0.99516
3762.56748	0.99495
3760.51368	0.99487
3758.45987	0.99494
3756.40607	0.99494
3754.35227	0.99481
3752.29846	0.99469
3750.24466	0.99494
3748.19086	0.99570
3746.13705	0.99675
3744.08325	0.99678
3742.02945	0.99542
3739.97564	0.99472
3737.92184	0.99507
3735.86804	0.99577
3733.81423	0.99606
3731.76043	0.99641
3729.70663	0.99654
3727.65282	0.99629
3725.59902	0.99606
3723.54522	0.99568
3721.49141	0.99547
3719.43761	0.99555
3717.38381	0.99538
3715.33001	0.99523
3713.27620	0.99550
3711.22240	0.99587
3709.16860	0.99588
3707.11479	0.99544
3705.06099	0.99479
3703.00719	0.99459
3700.95338	0.99465
3698.89958	0.99430
3696.84578	0.99436
3694.79197	0.99488
3692.73817	0.99492
3690.68437	0.99451
3688.63056	0.99421
3686.57676	0.99447
3684.52296	0.99496
3682.46915	0.99507
3680.41535	0.99497
3678.36155	0.99531
3676.30774	0.99567
3674.25394	0.99525
3672.20014	0.99490
3670.14633	0.99482
3668.09253	0.99468
3666.03873	0.99437
3663.98492	0.99390
3661.93112	0.99370
3659.87732	0.99426
3657.82352	0.99540
3655.76971	0.99596
3653.71591	0.99563
3651.66211	0.99547
3649.60830	0.99566
3647.55450	0.99552
3645.50070	0.99546
3643.44689	0.99571
3641.39309	0.99556
3639.33929	0.99484
3637.28548	0.99461
3635.23168	0.99489
3633.17788	0.99493
3631.12407	0.99497
3629.07027	0.99494
3627.01647	0.99448
3624.96266	0.99397
3622.90886	0.99366
3620.85506	0.99393
3618.80125	0.99467
3616.74745	0.99502
3614.69365	0.99469
3612.63984	0.99377
3610.58604	0.99302
3608.53224	0.99341
3606.47844	0.99453
3604.42463	0.99517
3602.37083	0.99485
3600.31703	0.99380
3598.26322	0.99299
3596.20942	0.99271
3594.15562	0.99268
3592.10181	0.99266
3590.04801	0.99227
3587.99421	0.99193
3585.94040	0.99232
3583.88660	0.99279
3581.83280	0.99312
3579.77899	0.99346
3577.72519	0.99362
3575.67139	0.99356
3573.61758	0.99333
3571.56378	0.99327
3569.50998	0.99360
3567.45617	0.99363
3565.40237	0.99327
3563.34857	0.99310
3561.29476	0.99277
3559.24096	0.99255
3557.18716	0.99283
3555.13335	0.99303
3553.07955	0.99274
3551.02575	0.99230
3548.97195	0.99240
3546.91814	0.99307
3544.86434	0.99318
3542.81054	0.99272
3540.75673	0.99262
3538.70293	0.99268
3536.64913	0.99250
3534.59532	0.99212
3532.54152	0.99212
3530.48772	0.99258
3528.43391	0.99290
3526.38011	0.99293
3524.32631	0.99281
3522.27250	0.99315
3520.21870	0.99371
3518.16490	0.99353
3516.11109	0.99337
3514.05729	0.99370
3512.00349	0.99355
3509.94968	0.99278
3507.89588	0.99224
3505.84208	0.99244
3503.78827	0.99277
3501.73447	0.99265
3499.68067	0.99240
3497.62687	0.99217
3495.57306	0.99240
3493.51926	0.99320
3491.46546	0.99349
3489.41165	0.99315
3487.35785	0.99295
3485.30405	0.99261
3483.25024	0.99207
3481.19644	0.99184
3479.14264	0.99173
3477.08883	0.99192
3475.03503	0.99231
3472.98123	0.99227
3470.92742	0.99227
3468.87362	0.99241
3466.81982	0.99227
3464.76601	0.99196
3462.71221	0.99164
3460.65841	0.99125
3458.60460	0.99089
3456.55080	0.99100
3454.49700	0.99173
3452.44319	0.99222
3450.38939	0.99181
3448.33559	0.99112
3446.28178	0.99113
3444.22798	0.99159
3442.17418	0.99166
3440.12038	0.99137
3438.06657	0.99117
3436.01277	0.99114
3433.95897	0.99131
3431.90516	0.99154
3429.85136	0.99147
3427.79756	0.99152
3425.74375	0.99203
3423.68995	0.99217
3421.63615	0.99180
3419.58234	0.99137
3417.52854	0.99050
3415.47474	0.98964
3413.42093	0.98983
3411.36713	0.99048
3409.31333	0.99066
3407.25952	0.99053
3405.20572	0.99047
3403.15192	0.99082
3401.09811	0.99136
3399.04431	0.99160
3396.99051	0.99176
3394.93670	0.99181
3392.88290	0.99140
3390.82910	0.99084
3388.77529	0.99084
3386.72149	0.99119
3384.66769	0.99097
3382.61389	0.99045
3380.56008	0.99026
3378.50628	0.99028
3376.45248	0.99032
3374.39867	0.99040
3372.34487	0.99096
3370.29107	0.99182
3368.23726	0.99225
3366.18346	0.99227
3364.12966	0.99212
3362.07585	0.99195
3360.02205	0.99211
3357.96825	0.99230
3355.91444	0.99192
3353.86064	0.99128
3351.80684	0.99121
3349.75303	0.99166
3347.69923	0.99158
3345.64543	0.99081
3343.59162	0.99026
3341.53782	0.99034
3339.48402	0.99080
3337.43021	0.99109
3335.37641	0.99085
3333.32261	0.99043
3331.26881	0.99017
3329.21500	0.99012
3327.16120	0.99028
3325.10740	0.99057
3323.05359	0.99097
3320.99979	0.99138
3318.94599	0.99142
3316.89218	0.99094
3314.83838	0.99069
3312.78458	0.99107
3310.73077	0.99122
3308.67697	0.99083
3306.62317	0.99043
3304.56936	0.99030
3302.51556	0.99015
3300.46176	0.99001
3298.40795	0.99006
3296.35415	0.99022
3294.30035	0.99072
3292.24654	0.99121
3290.19274	0.99133
3288.13894	0.99147
3286.08513	0.99175
3284.03133	0.99174
3281.97753	0.99125
3279.92372	0.99080
3277.86992	0.99057
3275.81612	0.99019
3273.76232	0.98990
3271.70851	0.99004
3269.65471	0.99040
3267.60091	0.99090
3265.54710	0.99149
3263.49330	0.99170
3261.43950	0.99131
3259.38569	0.99080
3257.33189	0.99073
3255.27809	0.99084
3253.22428	0.99063
3251.17048	0.99052
3249.11668	0.99062
3247.06287	0.99047
3245.00907	0.99034
3242.95527	0.99060
3240.90146	0.99109
3238.84766	0.99116
3236.79386	0.99058
3234.74005	0.99047
3232.68625	0.99108
3230.63245	0.99160
3228.57864	0.99193
3226.52484	0.99200
3224.47104	0.99156
3222.41724	0.99111
3220.36343	0.99103
3218.30963	0.99090
3216.25583	0.99084
3214.20202	0.99100
3212.14822	0.99091
3210.09442	0.99066
3208.04061	0.99073
3205.98681	0.99110
3203.93301	0.99104
3201.87920	0.99058
3199.82540	0.99063
3197.77160	0.99125
3195.71779	0.99185
3193.66399	0.99215
3191.61019	0.99226
3189.55638	0.99219
3187.50258	0.99177
3185.44878	0.99161
3183.39497	0.99194
3181.34117	0.99198
3179.28737	0.99178
3177.23356	0.99192
3175.17976	0.99230
3173.12596	0.99236
3171.07215	0.99191
3169.01835	0.99157
3166.96455	0.99158
3164.91075	0.99151
3162.85694	0.99166
3160.80314	0.99220
3158.74934	0.99218
3156.69553	0.99165
3154.64173	0.99179
3152.58793	0.99250
3150.53412	0.99286
3148.48032	0.99264
3146.42652	0.99216
3144.37271	0.99169
3142.31891	0.99148
3140.26511	0.99161
3138.21130	0.99193
3136.15750	0.99256
3134.10370	0.99321
3132.04989	0.99305
3129.99609	0.99242
3127.94229	0.99230
3125.88848	0.99265
3123.83468	0.99293
3121.78088	0.99317
3119.72707	0.99315
3117.67327	0.99305
3115.61947	0.99334
3113.56566	0.99343
3111.51186	0.99287
3109.45806	0.99229
3107.40426	0.99240
3105.35045	0.99291
3103.29665	0.99305
3101.24285	0.99287
3099.18904	0.99266
3097.13524	0.99255
3095.08144	0.99258
3093.02763	0.99249
3090.97383	0.99243
3088.92003	0.99261
3086.86622	0.99266
3084.81242	0.99267
3082.75862	0.99279
3080.70481	0.99261
3078.65101	0.99239
3076.59721	0.99263
3074.54340	0.99291
3072.48960	0.99298
3070.43580	0.99281
3068.38199	0.99242
3066.32819	0.99226
3064.27439	0.99245
3062.22058	0.99252
3060.16678	0.99249
3058.11298	0.99293
3056.05918	0.99364
3054.00537	0.99397
3051.95157	0.99389
3049.89777	0.99373
3047.84396	0.99348
3045.79016	0.99322
3043.73636	0.99310
3041.68255	0.99295
3039.62875	0.99276
3037.57495	0.99276
3035.52114	0.99293
3033.46734	0.99312
3031.41354	0.99322
3029.35973	0.99320
3027.30593	0.99310
3025.25213	0.99298
3023.19832	0.99279
3021.14452	0.99269
3019.09072	0.99308
3017.03691	0.99355
3014.98311	0.99331
3012.92931	0.99292
3010.87550	0.99295
3008.82170	0.99299
3006.76790	0.99293
3004.71409	0.99304
3002.66029	0.99325
3000.60649	0.99332
2998.55269	0.99294
2996.49888	0.99218
2994.44508	0.99168
2992.39128	0.99172
2990.33747	0.99201
2988.28367	0.99201
2986.22987	0.99182
2984.17606	0.99199
2982.12226	0.99207
2980.06846	0.99174
2978.01465	0.99172
2975.96085	0.99214
2973.90705	0.99246
2971.85324	0.99246
2969.79944	0.99236
2967.74564	0.99236
2965.69183	0.99232
2963.63803	0.99237
2961.58423	0.99263
2959.53042	0.99277
2957.47662	0.99278
2955.42282	0.99276
2953.36901	0.99269
2951.31521	0.99260
2949.26141	0.99245
2947.20761	0.99246
2945.15380	0.99271
2943.10000	0.99256
2941.04620	0.99200
2938.99239	0.99191
2936.93859	0.99244
2934.88479	0.99293
2932.83098	0.99313
2930.77718	0.99323
2928.72338	0.99328
2926.66957	0.99319
2924.61577	0.99300
2922.56197	0.99312
2920.50816	0.99330
2918.45436	0.99306
2916.40056	0.99294
2914.34675	0.99313
2912.29295	0.99339
2910.23915	0.99335
2908.18534	0.99287
2906.13154	0.99280
2904.07774	0.99321
2902.02393	0.99304
2899.97013	0.99243
2897.91633	0.99228
2895.86252	0.99258
2893.80872	0.99278
2891.75492	0.99279
2889.70112	0.99251
2887.64731	0.99191
2885.59351	0.99150
2883.53971	0.99165
2881.48590	0.99198
2879.43210	0.99216
2877.37830	0.99225
2875.32449	0.99210
2873.27069	0.99191
2871.21689	0.99211
2869.16308	0.99240
2867.10928	0.99251
2865.05548	0.99252
2863.00167	0.99259
2860.94787	0.99289
2858.89407	0.99321
2856.84026	0.99349
2854.78646	0.99386
2852.73266	0.99398
2850.67885	0.99349
2848.62505	0.99285
2846.57125	0.99269
2844.51744	0.99287
2842.46364	0.99312
2840.40984	0.99331
2838.35603	0.99351
2836.30223	0.99394
2834.24843	0.99429
2832.19463	0.99427
2830.14082	0.99439
2828.08702	0.99457
2826.03322	0.99425
2823.97941	0.99385
2821.92561	0.99400
2819.87181	0.99450
2817.81800	0.99481
2815.76420	0.99457
2813.71040	0.99427
2811.65659	0.99443
2809.60279	0.99465
2807.54899	0.99473
2805.49518	0.99479
2803.44138	0.99474
2801.38758	0.99447
2799.33377	0.99414
2797.27997	0.99419
2795.22617	0.99449
2793.17236	0.99453
2791.11856	0.99458
2789.06476	0.99481
2787.01095	0.99488
2784.95715	0.99489
2782.90335	0.99509
2780.84955	0.99522
2778.79574	0.99519
2776.74194	0.99513
2774.68814	0.99517
2772.63433	0.99544
2770.58053	0.99565
2768.52673	0.99552
2766.47292	0.99528
2764.41912	0.99498
2762.36532	0.99467
2760.31151	0.99480
2758.25771	0.99514
2756.20391	0.99502
2754.15010	0.99479
2752.09630	0.99500
2750.04250	0.99536
2747.98869	0.99547
2745.93489	0.99553
2743.88109	0.99557
2741.82728	0.99538
2739.77348	0.99530
2737.71968	0.99551
2735.66587	0.99574
2733.61207	0.99581
2731.55827	0.99564
2729.50446	0.99525
2727.45066	0.99489
2725.39686	0.99474
2723.34306	0.99488
2721.28925	0.99506
2719.23545	0.99492
2717.18165	0.99480
2715.12784	0.99505
2713.07404	0.99536
2711.02024	0.99558
2708.96643	0.99569
2706.91263	0.99553
2704.85883	0.99533
2702.80502	0.99523
2700.75122	0.99511
2698.69742	0.99497
2696.64361	0.99489
2694.58981	0.99527
2692.53601	0.99573
2690.48220	0.99554
2688.42840	0.99515
2686.37460	0.99511
2684.32079	0.99499
2682.26699	0.99472
2680.21319	0.99477
2678.15938	0.99513
2676.10558	0.99553
2674.05178	0.99588
2671.99797	0.99600
2669.94417	0.99565
2667.89037	0.99513
2665.83657	0.99490
2663.78276	0.99475
2661.72896	0.99444
2659.67516	0.99422
2657.62135	0.99431
2655.56755	0.99443
2653.51375	0.99450
2651.45994	0.99460
2649.40614	0.99440
2647.35234	0.99402
2645.29853	0.99395
2643.24473	0.99401
2641.19093	0.99389
2639.13712	0.99377
2637.08332	0.99383
2635.02952	0.99407
2632.97571	0.99418
2630.92191	0.99386
2628.86811	0.99354
2626.81430	0.99371
2624.76050	0.99418
2622.70670	0.99458
2620.65289	0.99460
2618.59909	0.99420
2616.54529	0.99376
2614.49149	0.99336
2612.43768	0.99296
2610.38388	0.99282
2608.33008	0.99309
2606.27627	0.99345
2604.22247	0.99323
2602.16867	0.99269
2600.11486	0.99287
2598.06106	0.99356
2596.00726	0.99392
2593.95345	0.99385
2591.89965	0.99349
2589.84585	0.99313
2587.79204	0.99323
2585.73824	0.99336
2583.68444	0.99311
2581.63063	0.99303
2579.57683	0.99308
2577.52303	0.99292
2575.46922	0.99271
2573.41542	0.99280
2571.36162	0.99330
2569.30781	0.99373
2567.25401	0.99373
2565.20021	0.99345
2563.14640	0.99339
2561.09260	0.99360
2559.03880	0.99357
2556.98500	0.99351
2554.93119	0.99385
2552.87739	0.99385
2550.82359	0.99315
2548.76978	0.99233
2546.71598	0.99182
2544.66218	0.99167
2542.60837	0.99178
2540.55457	0.99200
2538.50077	0.99173
2536.44696	0.99108
2534.39316	0.99097
2532.33936	0.99122
2530.28555	0.99104
2528.23175	0.99050
2526.17795	0.98999
2524.12414	0.98926
2522.07034	0.98856
2520.01654	0.98842
2517.96273	0.98851
2515.90893	0.98866
2513.85513	0.98879
2511.80132	0.98852
2509.74752	0.98830
2507.69372	0.98859
2505.63992	0.98935
2503.58611	0.99042
2501.53231	0.99099
2499.47851	0.99071
2497.42470	0.99063
2495.37090	0.99135
2493.31710	0.99213
2491.26329	0.99239
2489.20949	0.99236
2487.15569	0.99245
2485.10188	0.99254
2483.04808	0.99280
2480.99428	0.99363
2478.94047	0.99402
2476.88667	0.99367
2474.83287	0.99352
2472.77906	0.99357
2470.72526	0.99380
2468.67146	0.99417
2466.61765	0.99420
2464.56385	0.99447
2462.51005	0.99523
2460.45624	0.99564
2458.40244	0.99536
2456.34864	0.99466
2454.29483	0.99472
2452.24103	0.99570
2450.18723	0.99596
2448.13343	0.99535
2446.07962	0.99525
2444.02582	0.99593
2441.97202	0.99668
2439.91821	0.99704
2437.86441	0.99697
2435.81061	0.99678
2433.75680	0.99702
2431.70300	0.99751
2429.64920	0.99721
2427.59539	0.99630
2425.54159	0.99599
2423.48779	0.99643
2421.43398	0.99649
2419.38018	0.99581
2417.32638	0.99550
2415.27257	0.99605
2413.21877	0.99656
2411.16497	0.99661
2409.11116	0.99672
2407.05736	0.99684
2405.00356	0.99693
2402.94975	0.99710
2400.89595	0.99681
2398.84215	0.99588
2396.78834	0.99524
2394.73454	0.99568
2392.68074	0.99648
2390.62694	0.99691
2388.57313	0.99722
2386.51933	0.99759
2384.46553	0.99772
2382.41172	0.99753
2380.35792	0.99731
2378.30412	0.99724
2376.25031	0.99718
2374.19651	0.99687
2372.14271	0.99686
2370.08890	0.99742
2368.03510	0.99768
2365.98130	0.99720
2363.92749	0.99657
2361.87369	0.99637
2359.81989	0.99640
2357.76608	0.99661
2355.71228	0.99689
2353.65848	0.99708
2351.60467	0.99735
2349.55087	0.99765
2347.49707	0.99783
2345.44326	0.99757
2343.38946	0.99682
2341.33566	0.99627
2339.28186	0.99609
2337.22805	0.99585
2335.17425	0.99516
2333.12045	0.99458
2331.06664	0.99480
2329.01284	0.99520
2326.95904	0.99500
2324.90523	0.99415
2322.85143	0.99372
2320.79763	0.99459
2318.74382	0.99540
2316.69002	0.99484
2314.63622	0.99397
2312.58241	0.99385
2310.52861	0.99389
2308.47481	0.99394
2306.42100	0.99443
2304.36720	0.99517
2302.31340	0.99550
2300.25959	0.99512
2298.20579	0.99453
2296.15199	0.99442
2294.09818	0.99490
2292.04438	0.99525
2289.99058	0.99482
2287.93677	0.99410
2285.88297	0.99423
2283.82917	0.99497
2281.77537	0.99512
2279.72156	0.99495
2277.66776	0.99519
2275.61396	0.99536
2273.56015	0.99484
2271.50635	0.99425
2269.45255	0.99427
2267.39874	0.99432
2265.34494	0.99432
2263.29114	0.99473
2261.23733	0.99523
2259.18353	0.99556
2257.12973	0.99536
2255.07592	0.99562
2253.02212	0.99642
2250.96832	0.99649
2248.91451	0.99701
2246.86071	0.99734
2244.80691	0.99603
2242.75310	0.99594
2240.69930	0.99762
2238.64550	0.99752
2236.59169	0.99635
2234.53789	0.99662
2232.48409	0.99721
2230.43029	0.99662
2228.37648	0.99506
2226.32268	0.99402
2224.26888	0.99435
2222.21507	0.99477
2220.16127	0.99476
2218.10747	0.99518
2216.05366	0.99605
2213.99986	0.99698
2211.94606	0.99774
2209.89225	0.99751
2207.83845	0.99587
2205.78465	0.99415
2203.73084	0.99371
2201.67704	0.99461
2199.62324	0.99602
2197.56943	0.99660
2195.51563	0.99689
2193.46183	0.99688
2191.40802	0.99567
2189.35422	0.99406
2187.30042	0.99332
2185.24661	0.99447
2183.19281	0.99638
2181.13901	0.99666
2179.08520	0.99595
2177.03140	0.99640
2174.97760	0.99710
2172.92380	0.99594
2170.86999	0.99416
2168.81619	0.99455
2166.76239	0.99619
2164.70858	0.99717
2162.65478	0.99721
2160.60098	0.99609
2158.54717	0.99669
2156.49337	0.99906
2154.43957	1.00013
2152.38576	1.00072
2150.33196	1.00127
2148.27816	1.00153
2146.22435	1.00190
2144.17055	1.00125
2142.11675	0.99923
2140.06294	0.99770
2138.00914	0.99710
2135.95534	0.99729
2133.90153	0.99882
2131.84773	1.00073
2129.79393	1.00060
2127.74012	0.99817
2125.68632	0.99661
2123.63252	0.99726
2121.57871	0.99781
2119.52491	0.99707
2117.47111	0.99654
2115.41731	0.99749
2113.36350	0.99914
2111.30970	0.99978
2109.25590	0.99988
2107.20209	1.00000
2105.14829	0.99894
2103.09449	0.99783
2101.04068	0.99786
2098.98688	0.99755
2096.93308	0.99698
2094.87927	0.99769
2092.82547	0.99864
2090.77167	0.99863
2088.71786	0.99842
2086.66406	0.99818
2084.61026	0.99795
2082.55645	0.99799
2080.50265	0.99791
2078.44885	0.99783
2076.39504	0.99732
2074.34124	0.99577
2072.28744	0.99499
2070.23363	0.99621
2068.17983	0.99765
2066.12603	0.99817
2064.07223	0.99799
2062.01842	0.99766
2059.96462	0.99749
2057.91082	0.99710
2055.85701	0.99700
2053.80321	0.99782
2051.74941	0.99823
2049.69560	0.99780
2047.64180	0.99779
2045.58800	0.99771
2043.53419	0.99760
2041.48039	0.99810
2039.42659	0.99676
2037.37278	0.99417
2035.31898	0.99359
2033.26518	0.99511
2031.21137	0.99730
2029.15757	0.99802
2027.10377	0.99804
2025.04996	0.99884
2022.99616	0.99883
2020.94236	0.99800
2018.88855	0.99680
2016.83475	0.99529
2014.78095	0.99486
2012.72714	0.99539
2010.67334	0.99699
2008.61954	0.99948
2006.56574	0.99918
2004.51193	0.99728
2002.45813	0.99765
2000.40433	0.99866
1998.35052	0.99906
1996.29672	0.99965
1994.24292	0.99982
1992.18911	0.99890
1990.13531	0.99775
1988.08151	0.99658
1986.02770	0.99467
1983.97390	0.99239
1981.92010	0.98998
1979.86629	0.98852
1977.81249	0.99033
1975.75869	0.99503
1973.70488	0.99965
1971.65108	1.00214
1969.59728	1.00148
1967.54347	0.99909
1965.48967	0.99881
1963.43587	1.00054
1961.38206	1.00071
1959.32826	0.99945
1957.27446	0.99925
1955.22066	1.00041
1953.16685	1.00213
1951.11305	1.00284
1949.05925	1.00107
1947.00544	0.99885
1944.95164	0.99896
1942.89784	1.00077
1940.84403	1.00160
1938.79023	1.00052
1936.73643	0.99936
1934.68262	0.99871
1932.62882	0.99765
1930.57502	0.99717
1928.52121	0.99815
1926.46741	0.99947
1924.41361	1.00039
1922.35980	1.00072
1920.30600	1.00037
1918.25220	0.99950
1916.19839	0.99863
1914.14459	0.99840
1912.09079	0.99851
1910.03698	0.99853
1907.98318	0.99868
1905.92938	0.99903
1903.87557	0.99908
1901.82177	0.99866
1899.76797	0.99851
1897.71417	0.99832
1895.66036	0.99770
1893.60656	0.99736
1891.55276	0.99769
1889.49895	0.99828
1887.44515	0.99829
1885.39135	0.99773
1883.33754	0.99724
1881.28374	0.99719
1879.22994	0.99761
1877.17613	0.99795
1875.12233	0.99803
1873.06853	0.99825
1871.01472	0.99858
1868.96092	0.99906
1866.90712	0.99910
1864.85331	0.99834
1862.79951	0.99802
1860.74571	0.99839
1858.69190	0.99852
1856.63810	0.99836
1854.58430	0.99835
1852.53049	0.99838
1850.47669	0.99842
1848.42289	0.99813
1846.36908	0.99722
1844.31528	0.99646
1842.26148	0.99654
1840.20768	0.99710
1838.15387	0.99787
1836.10007	0.99853
1834.04627	0.99836
1831.99246	0.99742
1829.93866	0.99649
1827.88486	0.99626
1825.83105	0.99634
1823.77725	0.99618
1821.72345	0.99618
1819.66964	0.99657
1817.61584	0.99678
1815.56204	0.99661
1813.50823	0.99625
1811.45443	0.99559
1809.40063	0.99512
1807.34682	0.99476
1805.29302	0.99371
1803.23922	0.99233
1801.18541	0.99125
1799.13161	0.99036
1797.07781	0.98958
1795.02400	0.98931
1792.97020	0.98942
1790.91640	0.99011
1788.86260	0.99166
1786.80879	0.99339
1784.75499	0.99474
1782.70119	0.99545
1780.64738	0.99580
1778.59358	0.99606
1776.53978	0.99627
1774.48597	0.99655
1772.43217	0.99673
1770.37837	0.99678
1768.32456	0.99708
1766.27076	0.99739
1764.21696	0.99719
1762.16315	0.99669
1760.10935	0.99655
1758.05555	0.99685
1756.00174	0.99716
1753.94794	0.99708
1751.89414	0.99671
1749.84033	0.99670
1747.78653	0.99698
1745.73273	0.99701
1743.67892	0.99682
1741.62512	0.99658
1739.57132	0.99653
1737.51751	0.99684
1735.46371	0.99710
1733.40991	0.99683
1731.35611	0.99644
1729.30230	0.99640
1727.24850	0.99645
1725.19470	0.99629
1723.14089	0.99610
1721.08709	0.99628
1719.03329	0.99655
1716.97948	0.99638
1714.92568	0.99607
1712.87188	0.99586
1710.81807	0.99565
1708.76427	0.99554
1706.71047	0.99567
1704.65666	0.99579
1702.60286	0.99569
1700.54906	0.99551
1698.49525	0.99514
1696.44145	0.99417
1694.38765	0.99305
1692.33384	0.99237
1690.28004	0.99169
1688.22624	0.99111
1686.17243	0.99113
1684.11863	0.99178
1682.06483	0.99235
1680.01103	0.99256
1677.95722	0.99285
1675.90342	0.99315
1673.84962	0.99311
1671.79581	0.99291
1669.74201	0.99282
1667.68821	0.99281
1665.63440	0.99283
1663.58060	0.99275
1661.52680	0.99256
1659.47299	0.99261
1657.41919	0.99297
1655.36539	0.99316
1653.31158	0.99253
1651.25778	0.99231
1649.20398	0.99288
1647.15017	0.99279
1645.09637	0.99214
1643.04257	0.99215
1640.98876	0.99249
1638.93496	0.99276
1636.88116	0.99260
1634.82735	0.99211
1632.77355	0.99216
1630.71975	0.99266
1628.66594	0.99307
1626.61214	0.99291
1624.55834	0.99242
1622.50454	0.99233
1620.45073	0.99267
1618.39693	0.99284
1616.34313	0.99227
1614.28932	0.99122
1612.23552	0.99057
1610.18172	0.99029
1608.12791	0.99017
1606.07411	0.99013
1604.02031	0.99020
1601.96650	0.99017
1599.91270	0.98968
1597.85890	0.98891
1595.80509	0.98825
1593.75129	0.98779
1591.69749	0.98753
1589.64368	0.98743
1587.58988	0.98727
1585.53608	0.98692
1583.48227	0.98638
1581.42847	0.98570
1579.37467	0.98520
1577.32086	0.98514
1575.26706	0.98505
1573.21326	0.98458
1571.15945	0.98392
1569.10565	0.98317
1567.05185	0.98272
1564.99805	0.98233
1562.94424	0.98173
1560.89044	0.98071
1558.83664	0.97805
1556.78283	0.97543
1554.72903	0.97385
1552.67523	0.97150
1550.62142	0.96831
1548.56762	0.96508
1546.51382	0.96261
1544.46001	0.96007
1542.40621	0.95664
1540.35241	0.95219
1538.29860	0.94870
1536.24480	0.94724
1534.19100	0.94555
1532.13719	0.94337
1530.08339	0.94220
1528.02959	0.94126
1525.97578	0.93952
1523.92198	0.93779
1521.86818	0.93644
1519.81437	0.93562
1517.76057	0.93471
1515.70677	0.93320
1513.65297	0.93223
1511.59916	0.93199
1509.54536	0.93187
1507.49156	0.92990
1505.43775	0.92623
1503.38395	0.92534
1501.33015	0.92539
1499.27634	0.92466
1497.22254	0.92293
1495.16874	0.92133
1493.11493	0.92075
1491.06113	0.92015
1489.00733	0.91857
1486.95352	0.91699
1484.89972	0.91603
1482.84592	0.91523
1480.79211	0.91439
1478.73831	0.91372
1476.68451	0.91339
1474.63070	0.91273
1472.57690	0.91082
1470.52310	0.90893
1468.46929	0.90809
1466.41549	0.90707
1464.36169	0.90528
1462.30788	0.90407
1460.25408	0.90392
1458.20028	0.90319
1456.14648	0.90049
1454.09267	0.89863
1452.03887	0.89783
1449.98507	0.89688
1447.93126	0.89536
1445.87746	0.89384
1443.82366	0.89289
1441.76985	0.89204
1439.71605	0.89119
1437.66225	0.89005
1435.60844	0.88857
1433.55464	0.88798
1431.50084	0.88730
1429.44703	0.88570
1427.39323	0.88451
1425.33943	0.88394
1423.28562	0.88327
1421.23182	0.88240
1419.17802	0.88041
1417.12421	0.87782
1415.07041	0.87596
1413.01661	0.87400
1410.96280	0.87164
1408.90900	0.86936
1406.85520	0.86745
1404.80139	0.86556
1402.74759	0.86417
1400.69379	0.86326
1398.63999	0.86202
1396.58618	0.86070
1394.53238	0.85926
1392.47858	0.85795
1390.42477	0.85726
1388.37097	0.85656
1386.31717	0.85587
1384.26336	0.85579
1382.20956	0.85583
1380.15576	0.85577
1378.10195	0.85614
1376.04815	0.85677
1373.99435	0.85719
1371.94054	0.85787
1369.88674	0.85877
1367.83294	0.85965
1365.77913	0.86074
1363.72533	0.86169
1361.67153	0.86245
1359.61772	0.86361
1357.56392	0.86497
1355.51012	0.86634
1353.45631	0.86792
1351.40251	0.86937
1349.34871	0.87043
1347.29491	0.87167
1345.24110	0.87330
1343.18730	0.87468
1341.13350	0.87563
1339.07969	0.87660
1337.02589	0.87764
1334.97209	0.87858
1332.91828	0.87942
1330.86448	0.88010
1328.81068	0.88062
1326.75687	0.88120
1324.70307	0.88201
1322.64927	0.88295
1320.59546	0.88376
1318.54166	0.88443
1316.48786	0.88518
1314.43405	0.88591
1312.38025	0.88635
1310.32645	0.88678
1308.27264	0.88753
1306.21884	0.88826
1304.16504	0.88871
1302.11123	0.88911
1300.05743	0.88966
1298.00363	0.89041
1295.94982	0.89119
1293.89602	0.89180
1291.84222	0.89227
1289.78842	0.89262
1287.73461	0.89296
1285.68081	0.89332
1283.62701	0.89354
1281.57320	0.89369
1279.51940	0.89396
1277.46560	0.89440
1275.41179	0.89505
1273.35799	0.89569
1271.30419	0.89600
1269.25038	0.89604
1267.19658	0.89615
1265.14278	0.89655
1263.08897	0.89697
1261.03517	0.89721
1258.98137	0.89742
1256.92756	0.89768
1254.87376	0.89805
1252.81996	0.89858
1250.76615	0.89902
1248.71235	0.89924
1246.65855	0.89948
1244.60474	0.89974
1242.55094	0.89991
1240.49714	0.90009
1238.44334	0.90047
1236.38953	0.90083
1234.33573	0.90081
1232.28193	0.90074
1230.22812	0.90106
1228.17432	0.90165
1226.12052	0.90190
1224.06671	0.90190
1222.01291	0.90221
1219.95911	0.90260
1217.90530	0.90265
1215.85150	0.90275
1213.79770	0.90315
1211.74389	0.90330
1209.69009	0.90296
1207.63629	0.90268
1205.58248	0.90288
1203.52868	0.90328
1201.47488	0.90363
1199.42107	0.90385
1197.36727	0.90386
1195.31347	0.90377
1193.25966	0.90367
1191.20586	0.90344
1189.15206	0.90305
1187.09825	0.90277
1185.04445	0.90263
1182.99065	0.90233
1180.93685	0.90173
1178.88304	0.90140
1176.82924	0.90194
1174.77544	0.90280
1172.72163	0.90311
1170.66783	0.90310
1168.61403	0.90327
1166.56022	0.90339
1164.50642	0.90319
1162.45262	0.90317
1160.39881	0.90357
1158.34501	0.90370
1156.29121	0.90353
1154.23740	0.90380
1152.18360	0.90420
1150.12980	0.90414
1148.07599	0.90421
1146.02219	0.90480
1143.96839	0.90523
1141.91458	0.90537
1139.86078	0.90571
1137.80698	0.90605
1135.75317	0.90611
1133.69937	0.90631
1131.64557	0.90671
1129.59176	0.90691
1127.53796	0.90670
1125.48416	0.90667
1123.43036	0.90729
1121.37655	0.90792
1119.32275	0.90832
1117.26895	0.90918
1115.21514	0.91015
1113.16134	0.91031
1111.10754	0.91026
1109.05373	0.91063
1106.99993	0.91083
1104.94613	0.91081
1102.89232	0.91108
1100.83852	0.91152
1098.78472	0.91189
1096.73091	0.91211
1094.67711	0.91198
1092.62331	0.91163
1090.56950	0.91124
1088.51570	0.91074
1086.46190	0.91035
1084.40809	0.91024
1082.35429	0.91039
1080.30049	0.91083
1078.24668	0.91139
1076.19288	0.91207
1074.13908	0.91309
1072.08528	0.91411
1070.03147	0.91469
1067.97767	0.91504
1065.92387	0.91529
1063.87006	0.91570
1061.81626	0.91647
1059.76246	0.91718
1057.70865	0.91748
1055.65485	0.91759
1053.60105	0.91802
1051.54724	0.91862
1049.49344	0.91904
1047.43964	0.91951
1045.38583	0.92003
1043.33203	0.92055
1041.27823	0.92098
1039.22442	0.92095
1037.17062	0.92074
1035.11682	0.92112
1033.06301	0.92196
1031.00921	0.92267
1028.95541	0.92294
1026.90160	0.92297
1024.84780	0.92326
1022.79400	0.92356
1020.74019	0.92343
1018.68639	0.92312
1016.63259	0.92292
1014.57879	0.92277
1012.52498	0.92268
1010.47118	0.92291
1008.41738	0.92361
1006.36357	0.92460
1004.30977	0.92565
1002.25597	0.92667
1000.20216	0.92720
998.14836	0.92693
996.09456	0.92681
994.04075	0.92758
991.98695	0.92864
989.93315	0.92942
987.87934	0.93004
985.82554	0.93053
983.77174	0.93089
981.71793	0.93151
979.66413	0.93254
977.61033	0.93371
975.55652	0.93463
973.50272	0.93514
971.44892	0.93561
969.39511	0.93638
967.34131	0.93719
965.28751	0.93776
963.23371	0.93817
961.17990	0.93868
959.12610	0.93930
957.07230	0.93963
955.01849	0.93977
952.96469	0.94022
950.91089	0.94099
948.85708	0.94188
946.80328	0.94252
944.74948	0.94277
942.69567	0.94301
940.64187	0.94344
938.58807	0.94360
936.53426	0.94371
934.48046	0.94440
932.42666	0.94507
930.37285	0.94539
928.31905	0.94589
926.26525	0.94661
924.21144	0.94742
922.15764	0.94822
920.10384	0.94869
918.05003	0.94885
915.99623	0.94910
913.94243	0.94969
911.88862	0.95057
909.83482	0.95146
907.78102	0.95200
905.72722	0.95231
903.67341	0.95296
901.61961	0.95365
899.56581	0.95392
897.51200	0.95458
895.45820	0.95583
893.40440	0.95677
891.35059	0.95653
889.29679	0.95208
887.24299	0.93900
885.18918	0.91894
883.13538	0.89988
881.08158	0.88670
879.02777	0.87805
876.97397	0.87152
874.92017	0.86635
872.86636	0.86222
870.81256	0.86014
868.75876	0.86128
866.70495	0.86418
864.65115	0.86676
862.59735	0.86887
860.54354	0.87147
858.48974	0.87482
856.43594	0.87852
854.38213	0.88301
852.32833	0.88896
850.27453	0.89389
848.22073	0.89527
846.16692	0.89637
844.11312	0.90090
842.05932	0.90762
840.00551	0.91387
837.95171	0.91904
835.89791	0.92322
833.84410	0.92508
831.79030	0.92494
829.73650	0.92638
827.68269	0.93054
825.62889	0.93468
823.57509	0.93751
821.52128	0.93972
819.46748	0.94177
817.41368	0.94374
815.35987	0.94560
813.30607	0.94679
811.25227	0.94707
809.19846	0.94735
807.14466	0.94811
805.09086	0.94905
803.03705	0.94995
800.98325	0.95072
798.92945	0.95121
796.87565	0.95171
794.82184	0.95277
792.76804	0.95389
790.71424	0.95414
788.66043	0.95402
786.60663	0.95458
784.55283	0.95555
782.49902	0.95627
780.44522	0.95664
778.39142	0.95764
776.33761	0.95947
774.28381	0.96029
772.23001	0.95992
770.17620	0.96001
768.12240	0.96058
766.06860	0.96078
764.01479	0.96054
761.96099	0.96084
759.90719	0.96193
757.85338	0.96287
755.79958	0.96352
753.74578	0.96428
751.69197	0.96541
749.63817	0.96625
747.58437	0.96634
745.53056	0.96652
743.47676	0.96708
741.42296	0.96806
739.36916	0.96889
737.31535	0.96891
735.26155	0.96907
733.20775	0.96980
731.15394	0.97053
729.10014	0.97121
727.04634	0.97131
724.99253	0.96991
722.93873	0.96696
720.88493	0.96237
718.83112	0.95425
716.77732	0.94087
714.72352	0.92393
712.66971	0.90904
710.61591	0.90262
708.56211	0.90593
706.50830	0.91453
704.45450	0.92354
702.40070	0.93107
700.34689	0.93715
698.29309	0.94198
696.23929	0.94630
694.18548	0.95010
692.13168	0.95294
690.07788	0.95565
688.02408	0.95766
685.97027	0.95748
683.91647	0.95655
681.86267	0.95717
679.80886	0.95897
677.75506	0.96028
675.70126	0.96142
673.64745	0.96242
671.59365	0.96247
669.53985	0.96251
667.48604	0.96417
665.43224	0.96684
663.37844	0.96866
661.32463	0.96868
659.27083	0.96838
657.21703	0.96949
655.16322	0.96995
653.10942	0.96864
651.05562	0.96721
649.00181	0.96652
646.94801	0.96691
644.89421	0.96835
642.84040	0.97006
640.78660	0.97178
638.73280	0.97309
636.67899	0.97331
634.62519	0.97297
632.57139	0.97209
630.51759	0.97042
628.46378	0.96946
626.40998	0.96959
624.35618	0.97035
622.30237	0.97162
620.24857	0.97276
618.19477	0.97374
616.14096	0.97413
614.08716	0.97381
612.03336	0.97451
609.97955	0.97611
607.92575	0.97589
605.87195	0.97314
603.81814	0.97117
601.76434	0.97203
599.71054	0.97334
597.65673	0.97350
595.60293	0.97347
593.54913	0.97375
591.49532	0.97427
589.44152	0.97481
587.38772	0.97505
585.33391	0.97573
583.28011	0.97745
581.22631	0.97845
579.17250	0.97833
577.11870	0.97819
575.06490	0.97758
573.01110	0.97761
570.95729	0.97904
568.90349	0.98092
566.84969	0.98236
564.79588	0.98168
562.74208	0.97974
560.68828	0.97937
558.63447	0.98068
556.58067	0.98151
554.52687	0.98118
552.47306	0.98110
550.41926	0.98073
548.36546	0.97924
546.31165	0.97824
544.25785	0.97874
542.20405	0.97930
540.15024	0.97770
538.09644	0.97409
536.04264	0.97106
533.98883	0.97008
531.93503	0.97091
529.88123	0.97274
527.82742	0.97393
525.77362	0.97434
523.71982	0.97575
521.66602	0.97785
519.61221	0.97970
517.55841	0.98180
515.50461	0.98311
513.45080	0.98226
511.39700	0.98039
509.34320	0.97864
507.28939	0.97696
505.23559	0.97569
503.18179	0.97553
501.12798	0.97590
499.07418	0.97621
497.02038	0.97672
494.96657	0.97751
492.91277	0.97773
490.85897	0.97599
488.80516	0.97360
486.75136	0.97236
484.69756	0.97298
482.64375	0.97612
480.58995	0.97807
478.53615	0.97500
476.48234	0.97164
474.42854	0.97309
472.37474	0.97492
470.32093	0.97381
468.26713	0.97370
466.21333	0.97402
464.15953	0.97107
462.10572	0.96704
460.05192	0.96684
457.99812	0.96929
455.94431	0.97051
453.89051	0.97088
451.83671	0.97055
449.78290	0.97127
447.72910	0.97502
445.67530	0.97681
443.62149	0.97363
441.56769	0.97008
439.51389	0.96984
437.46008	0.97077
435.40628	0.96832
433.35248	0.96633
431.29867	0.96779
429.24487	0.96601
427.19107	0.96229
425.13726	0.96292
423.08346	0.96632
421.02966	0.96992
418.97585	0.97110
416.92205	0.96624
414.86825	0.96184
412.81445	0.96122
410.76064	0.96322
408.70684	0.96400
406.65304	0.95864
404.59923	0.95252
402.54543	0.95355
400.49163	0.95796
398.43782	0.95898
