3996.70104	0.98761
3994.64724	0.98670
3992.59344	0.98678
3990.53964	0.98751
3988.48583	0.98790
3986.43203	0.98799
3984.37823	0.98809
3982.32442	0.98811
3980.27062	0.98816
3978.21682	0.98819
3976.16301	0.98792
3974.10921	0.98775
3972.05541	0.98811
3970.00160	0.98845
3967.94780	0.98816
3965.89400	0.98751
3963.84019	0.98722
3961.78639	0.98764
3959.73259	0.98824
3957.67878	0.98844
3955.62498	0.98840
3953.57118	0.98828
3951.51737	0.98795
3949.46357	0.98788
3947.40977	0.98829
3945.35596	0.98842
3943.30216	0.98810
3941.24836	0.98788
3939.19455	0.98807
3937.14075	0.98827
3935.08695	0.98811
3933.03315	0.98765
3930.97934	0.98752
3928.92554	0.98803
3926.87174	0.98844
3924.81793	0.98838
3922.76413	0.98821
3920.71033	0.98821
3918.65652	0.98820
3916.60272	0.98812
3914.54892	0.98818
3912.49511	0.98842
3910.44131	0.98850
3908.38751	0.98823
3906.33370	0.98797
3904.27990	0.98794
3902.22610	0.98816
3900.17229	0.98845
3898.11849	0.98848
3896.06469	0.98802
3894.01088	0.98718
3891.95708	0.98697
3889.90328	0.98776
3887.84947	0.98852
3885.79567	0.98876
3883.74187	0.98837
3881.68807	0.98816
3879.63426	0.98832
3877.58046	0.98852
3875.52666	0.98885
3873.47285	0.98901
3871.41905	0.98835
3869.36525	0.98704
3867.31144	0.98670
3865.25764	0.98763
3863.20384	0.98872
3861.15003	0.98886
3859.09623	0.98845
3857.04243	0.98840
3854.98862	0.98852
3852.93482	0.98820
3850.88102	0.98868
3848.82721	0.98937
3846.77341	0.98924
3844.71961	0.98848
3842.66580	0.98784
3840.61200	0.98811
3838.55820	0.98894
3836.50439	0.98917
3834.45059	0.98875
3832.39679	0.98800
3830.34298	0.98767
3828.28918	0.98813
3826.23538	0.98859
3824.18158	0.98875
3822.12777	0.98860
3820.07397	0.98788
3818.02017	0.98755
3815.96636	0.98800
3813.91256	0.98879
3811.85876	0.98901
3809.80495	0.98849
3807.75115	0.98804
3805.69735	0.98808
3803.64354	0.98814
3801.58974	0.98819
3799.53594	0.98856
3797.48213	0.98912
3795.42833	0.98957
3793.37453	0.98945
3791.32072	0.98898
3789.26692	0.98867
3787.21312	0.98854
3785.15931	0.98849
3783.10551	0.98857
3781.05171	0.98857
3778.99790	0.98827
3776.94410	0.98825
3774.89030	0.98847
3772.83650	0.98855
3770.78269	0.98880
3768.72889	0.98884
3766.67509	0.98838
3764.62128	0.98784
3762.56748	0.98746
3760.51368	0.98731
3758.45987	0.98727
3756.40607	0.98724
3754.35227	0.98722
3752.29846	0.98720
3750.24466	0.98712
3748.19086	0.98722
3746.13705	0.98714
3744.08325	0.98707
3742.02945	0.98746
3739.97564	0.98746
3737.92184	0.98703
3735.86804	0.98720
3733.81423	0.98817
3731.76043	0.98838
3729.70663	0.98778
3727.65282	0.98715
3725.59902	0.98679
3723.54522	0.98647
3721.49141	0.98584
3719.43761	0.98485
3717.38381	0.98386
3715.33001	0.98287
3713.27620	0.98153
3711.22240	0.97926
3709.16860	0.97568
3707.11479	0.97193
3705.06099	0.96851
3703.00719	0.96508
3700.95338	0.96205
3698.89958	0.96035
3696.84578	0.95965
3694.79197	0.95979
3692.73817	0.96143
3690.68437	0.96464
3688.63056	0.96706
3686.57676	0.96717
3684.52296	0.96689
3682.46915	0.96694
3680.41535	0.96728
3678.36155	0.96814
3676.30774	0.96901
3674.25394	0.96867
3672.20014	0.96788
3670.14633	0.96646
3668.09253	0.96449
3666.03873	0.96374
3663.98492	0.96366
3661.93112	0.96343
3659.87732	0.96300
3657.82352	0.96219
3655.76971	0.96077
3653.71591	0.95967
3651.66211	0.95938
3649.60830	0.95964
3647.55450	0.95935
3645.50070	0.95839
3643.44689	0.95800
3641.39309	0.95779
3639.33929	0.95693
3637.28548	0.95585
3635.23168	0.95491
3633.17788	0.95437
3631.12407	0.95402
3629.07027	0.95175
3627.01647	0.94809
3624.96266	0.94649
3622.90886	0.94653
3620.85506	0.94729
3618.80125	0.94793
3616.74745	0.94834
3614.69365	0.94889
3612.63984	0.94972
3610.58604	0.95096
3608.53224	0.95218
3606.47844	0.95272
3604.42463	0.95295
3602.37083	0.95303
3600.31703	0.95278
3598.26322	0.95272
3596.20942	0.95286
3594.15562	0.95262
3592.10181	0.95221
3590.04801	0.95246
3587.99421	0.95293
3585.94040	0.95273
3583.88660	0.95270
3581.83280	0.95278
3579.77899	0.95235
3577.72519	0.95174
3575.67139	0.95157
3573.61758	0.95159
3571.56378	0.95141
3569.50998	0.95104
3567.45617	0.95052
3565.40237	0.95047
3563.34857	0.95065
3561.29476	0.95078
3559.24096	0.95096
3557.18716	0.95093
3555.13335	0.95091
3553.07955	0.95073
3551.02575	0.95021
3548.97195	0.95000
3546.91814	0.94967
3544.86434	0.94870
3542.81054	0.94820
3540.75673	0.94822
3538.70293	0.94806
3536.64913	0.94774
3534.59532	0.94773
3532.54152	0.94813
3530.48772	0.94859
3528.43391	0.94868
3526.38011	0.94840
3524.32631	0.94817
3522.27250	0.94812
3520.21870	0.94835
3518.16490	0.94863
3516.11109	0.94841
3514.05729	0.94778
3512.00349	0.94724
3509.94968	0.94701
3507.89588	0.94693
3505.84208	0.94671
3503.78827	0.94610
3501.73447	0.94532
3499.68067	0.94484
3497.62687	0.94460
3495.57306	0.94432
3493.51926	0.94406
3491.46546	0.94400
3489.41165	0.94416
3487.35785	0.94427
3485.30405	0.94411
3483.25024	0.94409
3481.19644	0.94420
3479.14264	0.94392
3477.08883	0.94340
3475.03503	0.94310
3472.98123	0.94283
3470.92742	0.94227
3468.87362	0.94184
3466.81982	0.94171
3464.76601	0.94139
3462.71221	0.94119
3460.65841	0.94152
3458.60460	0.94137
3456.55080	0.94035
3454.49700	0.93947
3452.44319	0.93923
3450.38939	0.93921
3448.33559	0.93902
3446.28178	0.93873
3444.22798	0.93848
3442.17418	0.93807
3440.12038	0.93783
3438.06657	0.93786
3436.01277	0.93748
3433.95897	0.93675
3431.90516	0.93623
3429.85136	0.93606
3427.79756	0.93611
3425.74375	0.93591
3423.68995	0.93553
3421.63615	0.93578
3419.58234	0.93640
3417.52854	0.93628
3415.47474	0.93543
3413.42093	0.93481
3411.36713	0.93465
3409.31333	0.93447
3407.25952	0.93429
3405.20572	0.93416
3403.15192	0.93393
3401.09811	0.93367
3399.04431	0.93334
3396.99051	0.93325
3394.93670	0.93358
3392.88290	0.93348
3390.82910	0.93276
3388.77529	0.93216
3386.72149	0.93218
3384.66769	0.93276
3382.61389	0.93310
3380.56008	0.93299
3378.50628	0.93307
3376.45248	0.93343
3374.39867	0.93385
3372.34487	0.93409
3370.29107	0.93409
3368.23726	0.93389
3366.18346	0.93336
3364.12966	0.93285
3362.07585	0.93295
3360.02205	0.93344
3357.96825	0.93352
3355.91444	0.93325
3353.86064	0.93350
3351.80684	0.93421
3349.75303	0.93453
3347.69923	0.93436
3345.64543	0.93425
3343.59162	0.93430
3341.53782	0.93435
3339.48402	0.93451
3337.43021	0.93474
3335.37641	0.93484
3333.32261	0.93495
3331.26881	0.93516
3329.21500	0.93514
3327.16120	0.93492
3325.10740	0.93495
3323.05359	0.93534
3320.99979	0.93574
3318.94599	0.93569
3316.89218	0.93534
3314.83838	0.93520
3312.78458	0.93530
3310.73077	0.93534
3308.67697	0.93531
3306.62317	0.93510
3304.56936	0.93469
3302.51556	0.93473
3300.46176	0.93563
3298.40795	0.93651
3296.35415	0.93654
3294.30035	0.93618
3292.24654	0.93615
3290.19274	0.93657
3288.13894	0.93706
3286.08513	0.93731
3284.03133	0.93744
3281.97753	0.93779
3279.92372	0.93817
3277.86992	0.93821
3275.81612	0.93793
3273.76232	0.93762
3271.70851	0.93757
3269.65471	0.93774
3267.60091	0.93794
3265.54710	0.93815
3263.49330	0.93852
3261.43950	0.93913
3259.38569	0.93978
3257.33189	0.94025
3255.27809	0.94032
3253.22428	0.94010
3251.17048	0.94003
3249.11668	0.94016
3247.06287	0.94030
3245.00907	0.94036
3242.95527	0.94033
3240.90146	0.94055
3238.84766	0.94107
3236.79386	0.94168
3234.74005	0.94223
3232.68625	0.94258
3230.63245	0.94286
3228.57864	0.94299
3226.52484	0.94311
3224.47104	0.94366
3222.41724	0.94431
3220.36343	0.94450
3218.30963	0.94433
3216.25583	0.94456
3214.20202	0.94546
3212.14822	0.94638
3210.09442	0.94646
3208.04061	0.94589
3205.98681	0.94588
3203.93301	0.94634
3201.87920	0.94625
3199.82540	0.94600
3197.77160	0.94643
3195.71779	0.94739
3193.66399	0.94822
3191.61019	0.94875
3189.55638	0.94912
3187.50258	0.94938
3185.44878	0.94978
3183.39497	0.95036
3181.34117	0.95076
3179.28737	0.95101
3177.23356	0.95152
3175.17976	0.95213
3173.12596	0.95259
3171.07215	0.95315
3169.01835	0.95370
3166.96455	0.95402
3164.91075	0.95430
3162.85694	0.95445
3160.80314	0.95453
3158.74934	0.95469
3156.69553	0.95503
3154.64173	0.95576
3152.58793	0.95658
3150.53412	0.95705
3148.48032	0.95723
3146.42652	0.95736
3144.37271	0.95769
3142.31891	0.95798
3140.26511	0.95794
3138.21130	0.95789
3136.15750	0.95830
3134.10370	0.95917
3132.04989	0.96007
3129.99609	0.96026
3127.94229	0.95970
3125.88848	0.95961
3123.83468	0.96028
3121.78088	0.96079
3119.72707	0.96091
3117.67327	0.96086
3115.61947	0.96109
3113.56566	0.96160
3111.51186	0.96163
3109.45806	0.96152
3107.40426	0.96190
3105.35045	0.96229
3103.29665	0.96250
3101.24285	0.96272
3099.18904	0.96270
3097.13524	0.96267
3095.08144	0.96314
3093.02763	0.96383
3090.97383	0.96397
3088.92003	0.96372
3086.86622	0.96359
3084.81242	0.96357
3082.75862	0.96382
3080.70481	0.96420
3078.65101	0.96435
3076.59721	0.96459
3074.54340	0.96489
3072.48960	0.96496
3070.43580	0.96499
3068.38199	0.96529
3066.32819	0.96591
3064.27439	0.96663
3062.22058	0.96729
3060.16678	0.96751
3058.11298	0.96717
3056.05918	0.96694
3054.00537	0.96731
3051.95157	0.96804
3049.89777	0.96859
3047.84396	0.96870
3045.79016	0.96848
3043.73636	0.96811
3041.68255	0.96792
3039.62875	0.96834
3037.57495	0.96912
3035.52114	0.96981
3033.46734	0.97017
3031.41354	0.97002
3029.35973	0.96959
3027.30593	0.96950
3025.25213	0.97009
3023.19832	0.97085
3021.14452	0.97104
3019.09072	0.97082
3017.03691	0.97077
3014.98311	0.97111
3012.92931	0.97162
3010.87550	0.97199
3008.82170	0.97212
3006.76790	0.97178
3004.71409	0.97120
3002.66029	0.97104
3000.60649	0.97130
2998.55269	0.97151
2996.49888	0.97137
2994.44508	0.97096
2992.39128	0.97052
2990.33747	0.96990
2988.28367	0.96921
2986.22987	0.96873
2984.17606	0.96815
2982.12226	0.96743
2980.06846	0.96636
2978.01465	0.96448
2975.96085	0.96198
2973.90705	0.95924
2971.85324	0.95618
2969.79944	0.95241
2967.74564	0.94785
2965.69183	0.94300
2963.63803	0.93857
2961.58423	0.93493
2959.53042	0.93181
2957.47662	0.92893
2955.42282	0.92630
2953.36901	0.92394
2951.31521	0.92222
2949.26141	0.92222
2947.20761	0.92487
2945.15380	0.92972
2943.10000	0.93505
2941.04620	0.93879
2938.99239	0.93994
2936.93859	0.93879
2934.88479	0.93585
2932.83098	0.93153
2930.77718	0.92613
2928.72338	0.92005
2926.66957	0.91406
2924.61577	0.90828
2922.56197	0.90252
2920.50816	0.89715
2918.45436	0.89317
2916.40056	0.89211
2914.34675	0.89455
2912.29295	0.89953
2910.23915	0.90550
2908.18534	0.91116
2906.13154	0.91615
2904.07774	0.92057
2902.02393	0.92471
2899.97013	0.92864
2897.91633	0.93201
2895.86252	0.93501
2893.80872	0.93776
2891.75492	0.93982
2889.70112	0.94128
2887.64731	0.94229
2885.59351	0.94258
2883.53971	0.94218
2881.48590	0.94126
2879.43210	0.93991
2877.37830	0.93888
2875.32449	0.93870
2873.27069	0.93867
2871.21689	0.93833
2869.16308	0.93809
2867.10928	0.93860
2865.05548	0.94062
2863.00167	0.94422
2860.94787	0.94816
2858.89407	0.95062
2856.84026	0.95083
2854.78646	0.94896
2852.73266	0.94604
2850.67885	0.94432
2848.62505	0.94491
2846.57125	0.94623
2844.51744	0.94631
2842.46364	0.94481
2840.40984	0.94259
2838.35603	0.94114
2836.30223	0.94204
2834.24843	0.94604
2832.19463	0.95215
2830.14082	0.95828
2828.08702	0.96291
2826.03322	0.96599
2823.97941	0.96808
2821.92561	0.96961
2819.87181	0.97091
2817.81800	0.97215
2815.76420	0.97321
2813.71040	0.97391
2811.65659	0.97429
2809.60279	0.97455
2807.54899	0.97506
2805.49518	0.97584
2803.44138	0.97651
2801.38758	0.97687
2799.33377	0.97711
2797.27997	0.97737
2795.22617	0.97739
2793.17236	0.97726
2791.11856	0.97746
2789.06476	0.97797
2787.01095	0.97862
2784.95715	0.97917
2782.90335	0.97937
2780.84955	0.97933
2778.79574	0.97931
2776.74194	0.97930
2774.68814	0.97959
2772.63433	0.98012
2770.58053	0.98023
2768.52673	0.98009
2766.47292	0.98027
2764.41912	0.98071
2762.36532	0.98106
2760.31151	0.98114
2758.25771	0.98132
2756.20391	0.98163
2754.15010	0.98152
2752.09630	0.98124
2750.04250	0.98133
2747.98869	0.98155
2745.93489	0.98169
2743.88109	0.98171
2741.82728	0.98156
2739.77348	0.98130
2737.71968	0.98122
2735.66587	0.98129
2733.61207	0.98117
2731.55827	0.98092
2729.50446	0.98091
2727.45066	0.98113
2725.39686	0.98125
2723.34306	0.98114
2721.28925	0.98093
2719.23545	0.98085
2717.18165	0.98096
2715.12784	0.98132
2713.07404	0.98182
2711.02024	0.98221
2708.96643	0.98244
2706.91263	0.98240
2704.85883	0.98232
2702.80502	0.98260
2700.75122	0.98300
2698.69742	0.98331
2696.64361	0.98339
2694.58981	0.98321
2692.53601	0.98317
2690.48220	0.98326
2688.42840	0.98319
2686.37460	0.98321
2684.32079	0.98342
2682.26699	0.98338
2680.21319	0.98318
2678.15938	0.98300
2676.10558	0.98272
2674.05178	0.98271
2671.99797	0.98304
2669.94417	0.98323
2667.89037	0.98332
2665.83657	0.98355
2663.78276	0.98372
2661.72896	0.98369
2659.67516	0.98371
2657.62135	0.98384
2655.56755	0.98371
2653.51375	0.98349
2651.45994	0.98342
2649.40614	0.98334
2647.35234	0.98322
2645.29853	0.98311
2643.24473	0.98294
2641.19093	0.98285
2639.13712	0.98296
2637.08332	0.98304
2635.02952	0.98310
2632.97571	0.98360
2630.92191	0.98434
2628.86811	0.98468
2626.81430	0.98465
2624.76050	0.98455
2622.70670	0.98458
2620.65289	0.98474
2618.59909	0.98484
2616.54529	0.98476
2614.49149	0.98451
2612.43768	0.98413
2610.38388	0.98386
2608.33008	0.98387
2606.27627	0.98411
2604.22247	0.98467
2602.16867	0.98508
2600.11486	0.98476
2598.06106	0.98424
2596.00726	0.98387
2593.95345	0.98383
2591.89965	0.98467
2589.84585	0.98575
2587.79204	0.98602
2585.73824	0.98574
2583.68444	0.98539
2581.63063	0.98478
2579.57683	0.98431
2577.52303	0.98460
2575.46922	0.98511
2573.41542	0.98524
2571.36162	0.98501
2569.30781	0.98486
2567.25401	0.98530
2565.20021	0.98606
2563.14640	0.98652
2561.09260	0.98621
2559.03880	0.98542
2556.98500	0.98453
2554.93119	0.98396
2552.87739	0.98471
2550.82359	0.98630
2548.76978	0.98695
2546.71598	0.98666
2544.66218	0.98628
2542.60837	0.98593
2540.55457	0.98559
2538.50077	0.98512
2536.44696	0.98506
2534.39316	0.98570
2532.33936	0.98623
2530.28555	0.98684
2528.23175	0.98736
2526.17795	0.98702
2524.12414	0.98664
2522.07034	0.98680
2520.01654	0.98702
2517.96273	0.98697
2515.90893	0.98706
2513.85513	0.98756
2511.80132	0.98747
2509.74752	0.98672
2507.69372	0.98645
2505.63992	0.98676
2503.58611	0.98675
2501.53231	0.98634
2499.47851	0.98658
2497.42470	0.98742
2495.37090	0.98781
2493.31710	0.98780
2491.26329	0.98757
2489.20949	0.98702
2487.15569	0.98701
2485.10188	0.98772
2483.04808	0.98803
2480.99428	0.98747
2478.94047	0.98723
2476.88667	0.98779
2474.83287	0.98774
2472.77906	0.98698
2470.72526	0.98684
2468.67146	0.98743
2466.61765	0.98768
2464.56385	0.98740
2462.51005	0.98679
2460.45624	0.98598
2458.40244	0.98596
2456.34864	0.98655
2454.29483	0.98668
2452.24103	0.98653
2450.18723	0.98668
2448.13343	0.98699
2446.07962	0.98700
2444.02582	0.98665
2441.97202	0.98662
2439.91821	0.98717
2437.86441	0.98761
2435.81061	0.98764
2433.75680	0.98755
2431.70300	0.98728
2429.64920	0.98674
2427.59539	0.98676
2425.54159	0.98747
2423.48779	0.98758
2421.43398	0.98690
2419.38018	0.98650
2417.32638	0.98657
2415.27257	0.98670
2413.21877	0.98693
2411.16497	0.98708
2409.11116	0.98702
2407.05736	0.98697
2405.00356	0.98713
2402.94975	0.98777
2400.89595	0.98828
2398.84215	0.98788
2396.78834	0.98710
2394.73454	0.98685
2392.68074	0.98729
2390.62694	0.98780
2388.57313	0.98818
2386.51933	0.98841
2384.46553	0.98816
2382.41172	0.98780
2380.35792	0.98791
2378.30412	0.98827
2376.25031	0.98805
2374.19651	0.98678
2372.14271	0.98548
2370.08890	0.98500
2368.03510	0.98474
2365.98130	0.98355
2363.92749	0.98245
2361.87369	0.98323
2359.81989	0.98427
2357.76608	0.98473
2355.71228	0.98526
2353.65848	0.98563
2351.60467	0.98587
2349.55087	0.98600
2347.49707	0.98580
2345.44326	0.98544
2343.38946	0.98563
2341.33566	0.98611
2339.28186	0.98634
2337.22805	0.98634
2335.17425	0.98615
2333.12045	0.98618
2331.06664	0.98698
2329.01284	0.98762
2326.95904	0.98681
2324.90523	0.98561
2322.85143	0.98543
2320.79763	0.98608
2318.74382	0.98683
2316.69002	0.98705
2314.63622	0.98670
2312.58241	0.98653
2310.52861	0.98660
2308.47481	0.98633
2306.42100	0.98587
2304.36720	0.98569
2302.31340	0.98597
2300.25959	0.98608
2298.20579	0.98575
2296.15199	0.98578
2294.09818	0.98596
2292.04438	0.98579
2289.99058	0.98593
2287.93677	0.98645
2285.88297	0.98666
2283.82917	0.98652
2281.77537	0.98647
2279.72156	0.98685
2277.66776	0.98755
2275.61396	0.98800
2273.56015	0.98766
2271.50635	0.98641
2269.45255	0.98539
2267.39874	0.98596
2265.34494	0.98745
2263.29114	0.98841
2261.23733	0.98846
2259.18353	0.98798
2257.12973	0.98754
2255.07592	0.98741
2253.02212	0.98801
2250.96832	0.98906
2248.91451	0.98952
2246.86071	0.98900
2244.80691	0.98765
2242.75310	0.98651
2240.69930	0.98663
2238.64550	0.98702
2236.59169	0.98688
2234.53789	0.98732
2232.48409	0.98868
2230.43029	0.98946
2228.37648	0.98872
2226.32268	0.98725
2224.26888	0.98670
2222.21507	0.98736
2220.16127	0.98865
2218.10747	0.99008
2216.05366	0.98998
2213.99986	0.98754
2211.94606	0.98496
2209.89225	0.98497
2207.83845	0.98674
2205.78465	0.98711
2203.73084	0.98598
2201.67704	0.98556
2199.62324	0.98658
2197.56943	0.98752
2195.51563	0.98633
2193.46183	0.98407
2191.40802	0.98369
2189.35422	0.98465
2187.30042	0.98597
2185.24661	0.98835
2183.19281	0.99040
2181.13901	0.99037
2179.08520	0.98861
2177.03140	0.98768
2174.97760	0.98856
2172.92380	0.98856
2170.86999	0.98731
2168.81619	0.98668
2166.76239	0.98804
2164.70858	0.99121
2162.65478	0.99170
2160.60098	0.98887
2158.54717	0.98837
2156.49337	0.99051
2154.43957	0.99136
2152.38576	0.99069
2150.33196	0.98974
2148.27816	0.98821
2146.22435	0.98699
2144.17055	0.98793
2142.11675	0.99066
2140.06294	0.99238
2138.00914	0.99220
2135.95534	0.99144
2133.90153	0.99011
2131.84773	0.98882
2129.79393	0.98909
2127.74012	0.98998
2125.68632	0.98946
2123.63252	0.98878
2121.57871	0.98890
2119.52491	0.98846
2117.47111	0.98724
2115.41731	0.98564
2113.36350	0.98494
2111.30970	0.98626
2109.25590	0.98767
2107.20209	0.98748
2105.14829	0.98671
2103.09449	0.98652
2101.04068	0.98702
2098.98688	0.98764
2096.93308	0.98784
2094.87927	0.98787
2092.82547	0.98812
2090.77167	0.98832
2088.71786	0.98816
2086.66406	0.98759
2084.61026	0.98683
2082.55645	0.98689
2080.50265	0.98792
2078.44885	0.98860
2076.39504	0.98810
2074.34124	0.98714
2072.28744	0.98733
2070.23363	0.98916
2068.17983	0.99074
2066.12603	0.99037
2064.07223	0.98945
2062.01842	0.98912
2059.96462	0.98888
2057.91082	0.98878
2055.85701	0.98867
2053.80321	0.98820
2051.74941	0.98683
2049.69560	0.98593
2047.64180	0.98776
2045.58800	0.99020
2043.53419	0.99002
2041.48039	0.98837
2039.42659	0.98757
2037.37278	0.98771
2035.31898	0.98831
2033.26518	0.98883
2031.21137	0.98971
2029.15757	0.99257
2027.10377	0.99562
2025.04996	0.99622
2022.99616	0.99535
2020.94236	0.99223
2018.88855	0.98682
2016.83475	0.98459
2014.78095	0.98890
2012.72714	0.99454
2010.67334	0.99483
2008.61954	0.99093
2006.56574	0.98822
2004.51193	0.98799
2002.45813	0.98807
2000.40433	0.98786
1998.35052	0.98849
1996.29672	0.98900
1994.24292	0.98752
1992.18911	0.98555
1990.13531	0.98652
1988.08151	0.98917
1986.02770	0.98913
1983.97390	0.98730
1981.92010	0.98713
1979.86629	0.98792
1977.81249	0.98948
1975.75869	0.99168
1973.70488	0.99231
1971.65108	0.99255
1969.59728	0.99295
1967.54347	0.99305
1965.48967	0.99268
1963.43587	0.99201
1961.38206	0.99185
1959.32826	0.99172
1957.27446	0.99197
1955.22066	0.99255
1953.16685	0.99159
1951.11305	0.98954
1949.05925	0.98960
1947.00544	0.99143
1944.95164	0.99137
1942.89784	0.98920
1940.84403	0.98801
1938.79023	0.98880
1936.73643	0.99022
1934.68262	0.99070
1932.62882	0.98980
1930.57502	0.98896
1928.52121	0.98913
1926.46741	0.98967
1924.41361	0.99030
1922.35980	0.99032
1920.30600	0.98885
1918.25220	0.98702
1916.19839	0.98625
1914.14459	0.98669
1912.09079	0.98760
1910.03698	0.98839
1907.98318	0.98917
1905.92938	0.98974
1903.87557	0.98968
1901.82177	0.98922
1899.76797	0.98883
1897.71417	0.98886
1895.66036	0.98905
1893.60656	0.98884
1891.55276	0.98835
1889.49895	0.98825
1887.44515	0.98842
1885.39135	0.98788
1883.33754	0.98712
1881.28374	0.98726
1879.22994	0.98781
1877.17613	0.98835
1875.12233	0.98880
1873.06853	0.98876
1871.01472	0.98861
1868.96092	0.98873
1866.90712	0.98863
1864.85331	0.98837
1862.79951	0.98822
1860.74571	0.98820
1858.69190	0.98828
1856.63810	0.98846
1854.58430	0.98881
1852.53049	0.98898
1850.47669	0.98865
1848.42289	0.98811
1846.36908	0.98767
1844.31528	0.98780
1842.26148	0.98844
1840.20768	0.98887
1838.15387	0.98878
1836.10007	0.98827
1834.04627	0.98783
1831.99246	0.98802
1829.93866	0.98827
1827.88486	0.98794
1825.83105	0.98799
1823.77725	0.98836
1821.72345	0.98843
1819.66964	0.98864
1817.61584	0.98905
1815.56204	0.98931
1813.50823	0.98913
1811.45443	0.98833
1809.40063	0.98755
1807.34682	0.98751
1805.29302	0.98794
1803.23922	0.98844
1801.18541	0.98866
1799.13161	0.98856
1797.07781	0.98863
1795.02400	0.98895
1792.97020	0.98894
1790.91640	0.98821
1788.86260	0.98739
1786.80879	0.98690
1784.75499	0.98698
1782.70119	0.98764
1780.64738	0.98821
1778.59358	0.98825
1776.53978	0.98811
1774.48597	0.98794
1772.43217	0.98732
1770.37837	0.98672
1768.32456	0.98672
1766.27076	0.98672
1764.21696	0.98644
1762.16315	0.98632
1760.10935	0.98669
1758.05555	0.98701
1756.00174	0.98668
1753.94794	0.98606
1751.89414	0.98574
1749.84033	0.98546
1747.78653	0.98483
1745.73273	0.98417
1743.67892	0.98342
1741.62512	0.98252
1739.57132	0.98168
1737.51751	0.98095
1735.46371	0.98027
1733.40991	0.98010
1731.35611	0.98064
1729.30230	0.98068
1727.24850	0.98020
1725.19470	0.97974
1723.14089	0.97931
1721.08709	0.97881
1719.03329	0.97813
1716.97948	0.97736
1714.92568	0.97708
1712.87188	0.97671
1710.81807	0.97583
1708.76427	0.97499
1706.71047	0.97442
1704.65666	0.97374
1702.60286	0.97290
1700.54906	0.97150
1698.49525	0.96951
1696.44145	0.96761
1694.38765	0.96570
1692.33384	0.96431
1690.28004	0.96290
1688.22624	0.96143
1686.17243	0.96029
1684.11863	0.95843
1682.06483	0.95621
1680.01103	0.95461
1677.95722	0.95327
1675.90342	0.95201
1673.84962	0.95037
1671.79581	0.94849
1669.74201	0.94632
1667.68821	0.94426
1665.63440	0.94291
1663.58060	0.94138
1661.52680	0.93936
1659.47299	0.93792
1657.41919	0.93736
1655.36539	0.93729
1653.31158	0.93659
1651.25778	0.93545
1649.20398	0.93505
1647.15017	0.93453
1645.09637	0.93393
1643.04257	0.93361
1640.98876	0.93342
1638.93496	0.93351
1636.88116	0.93361
1634.82735	0.93318
1632.77355	0.93307
1630.71975	0.93362
1628.66594	0.93453
1626.61214	0.93532
1624.55834	0.93603
1622.50454	0.93720
1620.45073	0.93848
1618.39693	0.93963
1616.34313	0.94141
1614.28932	0.94355
1612.23552	0.94526
1610.18172	0.94693
1608.12791	0.94881
1606.07411	0.95041
1604.02031	0.95147
1601.96650	0.95232
1599.91270	0.95319
1597.85890	0.95420
1595.80509	0.95530
1593.75129	0.95604
1591.69749	0.95636
1589.64368	0.95682
1587.58988	0.95745
1585.53608	0.95787
1583.48227	0.95821
1581.42847	0.95872
1579.37467	0.95912
1577.32086	0.95897
1575.26706	0.95851
1573.21326	0.95859
1571.15945	0.95874
1569.10565	0.95820
1567.05185	0.95769
1564.99805	0.95775
1562.94424	0.95778
1560.89044	0.95758
1558.83664	0.95715
1556.78283	0.95662
1554.72903	0.95614
1552.67523	0.95572
1550.62142	0.95554
1548.56762	0.95581
1546.51382	0.95653
1544.46001	0.95708
1542.40621	0.95698
1540.35241	0.95644
1538.29860	0.95611
1536.24480	0.95629
1534.19100	0.95686
1532.13719	0.95772
1530.08339	0.95843
1528.02959	0.95902
1525.97578	0.95967
1523.92198	0.96031
1521.86818	0.96084
1519.81437	0.96133
1517.76057	0.96196
1515.70677	0.96258
1513.65297	0.96309
1511.59916	0.96378
1509.54536	0.96449
1507.49156	0.96495
1505.43775	0.96588
1503.38395	0.96722
1501.33015	0.96838
1499.27634	0.96894
1497.22254	0.96902
1495.16874	0.96936
1493.11493	0.96999
1491.06113	0.97082
1489.00733	0.97165
1486.95352	0.97184
1484.89972	0.97166
1482.84592	0.97134
1480.79211	0.97060
1478.73831	0.96912
1476.68451	0.96684
1474.63070	0.96365
1472.57690	0.95871
1470.52310	0.95322
1468.46929	0.94873
1466.41549	0.94377
1464.36169	0.93797
1462.30788	0.93398
1460.25408	0.93218
1458.20028	0.93073
1456.14648	0.92925
1454.09267	0.92909
1452.03887	0.93015
1449.98507	0.93280
1447.93126	0.93749
1445.87746	0.94282
1443.82366	0.94720
1441.76985	0.95055
1439.71605	0.95249
1437.66225	0.95290
1435.60844	0.95289
1433.55464	0.95437
1431.50084	0.95709
1429.44703	0.95966
1427.39323	0.96108
1425.33943	0.96186
1423.28562	0.96242
1421.23182	0.96282
1419.17802	0.96302
1417.12421	0.96288
1415.07041	0.96274
1413.01661	0.96276
1410.96280	0.96297
1408.90900	0.96321
1406.85520	0.96346
1404.80139	0.96397
1402.74759	0.96444
1400.69379	0.96453
1398.63999	0.96456
1396.58618	0.96485
1394.53238	0.96489
1392.47858	0.96436
1390.42477	0.96350
1388.37097	0.96226
1386.31717	0.96011
1384.26336	0.95596
1382.20956	0.94786
1380.15576	0.93448
1378.10195	0.91946
1376.04815	0.91150
1373.99435	0.91695
1371.94054	0.93057
1369.88674	0.94264
1367.83294	0.95068
1365.77913	0.95483
1363.72533	0.95625
1361.67153	0.95593
1359.61772	0.95502
1357.56392	0.95535
1355.51012	0.95754
1353.45631	0.96029
1351.40251	0.96237
1349.34871	0.96390
1347.29491	0.96499
1345.24110	0.96559
1343.18730	0.96613
1341.13350	0.96675
1339.07969	0.96719
1337.02589	0.96740
1334.97209	0.96720
1332.91828	0.96656
1330.86448	0.96598
1328.81068	0.96594
1326.75687	0.96635
1324.70307	0.96672
1322.64927	0.96684
1320.59546	0.96676
1318.54166	0.96666
1316.48786	0.96663
1314.43405	0.96672
1312.38025	0.96703
1310.32645	0.96727
1308.27264	0.96709
1306.21884	0.96652
1304.16504	0.96590
1302.11123	0.96575
1300.05743	0.96607
1298.00363	0.96634
1295.94982	0.96640
1293.89602	0.96644
1291.84222	0.96672
1289.78842	0.96718
1287.73461	0.96712
1285.68081	0.96656
1283.62701	0.96623
1281.57320	0.96624
1279.51940	0.96616
1277.46560	0.96581
1275.41179	0.96552
1273.35799	0.96528
1271.30419	0.96473
1269.25038	0.96408
1267.19658	0.96346
1265.14278	0.96274
1263.08897	0.96196
1261.03517	0.96110
1258.98137	0.96018
1256.92756	0.95942
1254.87376	0.95903
1252.81996	0.95890
1250.76615	0.95872
1248.71235	0.95839
1246.65855	0.95796
1244.60474	0.95741
1242.55094	0.95680
1240.49714	0.95615
1238.44334	0.95559
1236.38953	0.95521
1234.33573	0.95475
1232.28193	0.95416
1230.22812	0.95384
1228.17432	0.95392
1226.12052	0.95388
1224.06671	0.95334
1222.01291	0.95253
1219.95911	0.95192
1217.90530	0.95148
1215.85150	0.95088
1213.79770	0.95030
1211.74389	0.94990
1209.69009	0.94951
1207.63629	0.94921
1205.58248	0.94870
1203.52868	0.94752
1201.47488	0.94614
1199.42107	0.94506
1197.36727	0.94421
1195.31347	0.94339
1193.25966	0.94239
1191.20586	0.94109
1189.15206	0.93954
1187.09825	0.93815
1185.04445	0.93704
1182.99065	0.93595
1180.93685	0.93471
1178.88304	0.93310
1176.82924	0.93088
1174.77544	0.92788
1172.72163	0.92441
1170.66783	0.92111
1168.61403	0.91817
1166.56022	0.91581
1164.50642	0.91427
1162.45262	0.91340
1160.39881	0.91267
1158.34501	0.91137
1156.29121	0.90956
1154.23740	0.90785
1152.18360	0.90638
1150.12980	0.90519
1148.07599	0.90436
1146.02219	0.90368
1143.96839	0.90250
1141.91458	0.90051
1139.86078	0.89823
1137.80698	0.89610
1135.75317	0.89383
1133.69937	0.89134
1131.64557	0.88885
1129.59176	0.88619
1127.53796	0.88273
1125.48416	0.87839
1123.43036	0.87387
1121.37655	0.86944
1119.32275	0.86475
1117.26895	0.86005
1115.21514	0.85587
1113.16134	0.85226
1111.10754	0.84902
1109.05373	0.84560
1106.99993	0.84174
1104.94613	0.83805
1102.89232	0.83519
1100.83852	0.83316
1098.78472	0.83145
1096.73091	0.82972
1094.67711	0.82806
1092.62331	0.82607
1090.56950	0.82377
1088.51570	0.82221
1086.46190	0.82144
1084.40809	0.82048
1082.35429	0.81879
1080.30049	0.81662
1078.24668	0.81474
1076.19288	0.81322
1074.13908	0.81137
1072.08528	0.80889
1070.03147	0.80605
1067.97767	0.80323
1065.92387	0.80020
1063.87006	0.79636
1061.81626	0.79206
1059.76246	0.78792
1057.70865	0.78362
1055.65485	0.77854
1053.60105	0.77282
1051.54724	0.76701
1049.49344	0.76123
1047.43964	0.75520
1045.38583	0.74875
1043.33203	0.74218
1041.27823	0.73566
1039.22442	0.72886
1037.17062	0.72245
1035.11682	0.71750
1033.06301	0.71362
1031.00921	0.71027
1028.95541	0.70773
1026.90160	0.70593
1024.84780	0.70479
1022.79400	0.70411
1020.74019	0.70357
1018.68639	0.70297
1016.63259	0.70199
1014.57879	0.70059
1012.52498	0.69884
1010.47118	0.69680
1008.41738	0.69464
1006.36357	0.69272
1004.30977	0.69156
1002.25597	0.69135
1000.20216	0.69194
998.14836	0.69345
996.09456	0.69633
994.04075	0.70077
991.98695	0.70618
989.93315	0.71171
987.87934	0.71720
985.82554	0.72274
983.77174	0.72790
981.71793	0.73254
979.66413	0.73692
977.61033	0.74074
975.55652	0.74392
973.50272	0.74757
971.44892	0.75283
969.39511	0.75998
967.34131	0.76775
965.28751	0.77482
963.23371	0.78109
961.17990	0.78634
959.12610	0.79069
957.07230	0.79483
955.01849	0.79892
952.96469	0.80249
950.91089	0.80550
948.85708	0.80848
946.80328	0.81140
944.74948	0.81380
942.69567	0.81557
940.64187	0.81693
938.58807	0.81838
936.53426	0.82013
934.48046	0.82201
932.42666	0.82349
930.37285	0.82451
928.31905	0.82549
926.26525	0.82609
924.21144	0.82596
922.15764	0.82533
920.10384	0.82409
918.05003	0.82195
915.99623	0.81933
913.94243	0.81714
911.88862	0.81637
909.83482	0.81752
907.78102	0.82019
905.72722	0.82388
903.67341	0.82830
901.61961	0.83277
899.56581	0.83724
897.51200	0.84228
895.45820	0.84767
893.40440	0.85297
891.35059	0.85793
889.29679	0.86172
887.24299	0.86433
885.18918	0.86654
883.13538	0.86833
881.08158	0.86990
879.02777	0.87190
876.97397	0.87436
874.92017	0.87693
872.86636	0.87945
870.81256	0.88188
868.75876	0.88432
866.70495	0.88708
864.65115	0.89029
862.59735	0.89325
860.54354	0.89535
858.48974	0.89698
856.43594	0.89877
854.38213	0.90069
852.32833	0.90206
850.27453	0.90281
848.22073	0.90329
846.16692	0.90304
844.11312	0.90154
842.05932	0.89998
840.00551	0.90057
837.95171	0.90307
835.89791	0.90516
833.84410	0.90617
831.79030	0.90665
829.73650	0.90672
827.68269	0.90695
825.62889	0.90759
823.57509	0.90798
821.52128	0.90781
819.46748	0.90705
817.41368	0.90620
815.35987	0.90558
813.30607	0.90385
811.25227	0.90085
809.19846	0.89904
807.14466	0.89819
805.09086	0.89622
803.03705	0.89363
800.98325	0.89152
798.92945	0.89054
796.87565	0.89048
794.82184	0.89055
792.76804	0.89085
790.71424	0.89149
788.66043	0.89204
786.60663	0.89203
784.55283	0.89165
782.49902	0.89154
780.44522	0.89161
778.39142	0.89181
776.33761	0.89259
774.28381	0.89326
772.23001	0.89323
770.17620	0.89312
768.12240	0.89285
766.06860	0.89164
764.01479	0.89020
761.96099	0.88940
759.90719	0.88880
757.85338	0.88778
755.79958	0.88618
753.74578	0.88502
751.69197	0.88484
749.63817	0.88490
747.58437	0.88527
745.53056	0.88601
743.47676	0.88652
741.42296	0.88712
739.36916	0.88831
737.31535	0.88997
735.26155	0.89142
733.20775	0.89190
731.15394	0.89154
729.10014	0.89119
727.04634	0.89136
724.99253	0.89133
722.93873	0.89037
720.88493	0.88905
718.83112	0.88831
716.77732	0.88849
714.72352	0.88864
712.66971	0.88790
710.61591	0.88677
708.56211	0.88552
706.50830	0.88331
704.45450	0.87942
702.40070	0.87482
700.34689	0.87092
698.29309	0.86779
696.23929	0.86549
694.18548	0.86449
692.13168	0.86448
690.07788	0.86464
688.02408	0.86427
685.97027	0.86365
683.91647	0.86361
681.86267	0.86370
679.80886	0.86348
677.75506	0.86380
675.70126	0.86435
673.64745	0.86420
671.59365	0.86345
669.53985	0.86233
667.48604	0.86258
665.43224	0.86452
663.37844	0.86607
661.32463	0.86762
659.27083	0.86902
657.21703	0.86929
655.16322	0.86854
653.10942	0.86754
651.05562	0.86673
649.00181	0.86608
646.94801	0.86541
644.89421	0.86414
642.84040	0.86264
640.78660	0.86198
638.73280	0.86239
636.67899	0.86375
634.62519	0.86532
632.57139	0.86651
630.51759	0.86733
628.46378	0.86711
626.40998	0.86568
624.35618	0.86450
622.30237	0.86348
620.24857	0.86196
618.19477	0.86127
616.14096	0.86084
614.08716	0.85873
612.03336	0.85578
609.97955	0.85362
607.92575	0.85213
605.87195	0.85082
603.81814	0.84960
601.76434	0.84797
599.71054	0.84619
597.65673	0.84498
595.60293	0.84380
593.54913	0.84198
591.49532	0.83983
589.44152	0.83820
587.38772	0.83681
585.33391	0.83475
583.28011	0.83245
581.22631	0.83093
579.17250	0.82995
577.11870	0.82858
575.06490	0.82673
573.01110	0.82456
570.95729	0.82173
568.90349	0.81786
566.84969	0.81450
564.79588	0.81325
562.74208	0.81200
560.68828	0.80942
558.63447	0.80765
556.58067	0.80669
554.52687	0.80338
552.47306	0.79706
550.41926	0.79036
548.36546	0.78542
546.31165	0.78132
544.25785	0.77605
542.20405	0.77074
540.15024	0.76622
538.09644	0.76169
536.04264	0.75758
533.98883	0.75428
531.93503	0.75182
529.88123	0.74908
527.82742	0.74597
525.77362	0.74516
523.71982	0.74707
521.66602	0.74924
519.61221	0.75157
517.55841	0.75523
515.50461	0.75798
513.45080	0.75829
511.39700	0.75917
509.34320	0.76194
507.28939	0.76469
505.23559	0.76672
503.18179	0.76846
501.12798	0.77007
499.07418	0.77156
497.02038	0.77174
494.96657	0.77102
492.91277	0.77131
490.85897	0.77135
488.80516	0.76900
486.75136	0.76507
484.69756	0.76089
482.64375	0.75596
480.58995	0.74990
478.53615	0.74305
476.48234	0.73483
474.42854	0.72489
472.37474	0.71471
470.32093	0.70765
468.26713	0.70373
466.21333	0.70118
464.15953	0.70005
462.10572	0.69824
460.05192	0.69421
457.99812	0.69195
455.94431	0.69509
453.89051	0.70073
451.83671	0.70597
449.78290	0.70874
447.72910	0.70908
445.67530	0.71000
443.62149	0.71275
441.56769	0.71517
439.51389	0.71466
437.46008	0.71117
435.40628	0.70817
433.35248	0.70787
431.29867	0.70758
429.24487	0.70500
427.19107	0.70264
425.13726	0.70342
423.08346	0.70463
421.02966	0.70610
418.97585	0.71045
416.92205	0.71457
414.86825	0.71835
412.81445	0.72381
410.76064	0.72730
408.70684	0.72551
406.65304	0.72511
404.59923	0.72775
402.54543	0.72678
400.49163	0.72313
398.43782	0.72297
