3996.70104	0.94913
3994.64724	0.94902
3992.59344	0.94909
3990.53964	0.94924
3988.48583	0.94953
3986.43203	0.94995
3984.37823	0.95016
3982.32442	0.95005
3980.27062	0.94967
3978.21682	0.94931
3976.16301	0.94902
3974.10921	0.94912
3972.05541	0.94983
3970.00160	0.95038
3967.94780	0.95042
3965.89400	0.95010
3963.84019	0.94971
3961.78639	0.94976
3959.73259	0.94992
3957.67878	0.94983
3955.62498	0.94991
3953.57118	0.94985
3951.51737	0.94939
3949.46357	0.94948
3947.40977	0.95017
3945.35596	0.95031
3943.30216	0.94993
3941.24836	0.95004
3939.19455	0.95065
3937.14075	0.95084
3935.08695	0.95071
3933.03315	0.95103
3930.97934	0.95157
3928.92554	0.95138
3926.87174	0.95065
3924.81793	0.95009
3922.76413	0.94977
3920.71033	0.94951
3918.65652	0.94954
3916.60272	0.95004
3914.54892	0.95047
3912.49511	0.95089
3910.44131	0.95166
3908.38751	0.95224
3906.33370	0.95190
3904.27990	0.95096
3902.22610	0.95053
3900.17229	0.95064
3898.11849	0.95086
3896.06469	0.95060
3894.01088	0.95002
3891.95708	0.95013
3889.90328	0.95059
3887.84947	0.95073
3885.79567	0.95093
3883.74187	0.95106
3881.68807	0.95107
3879.63426	0.95118
3877.58046	0.95112
3875.52666	0.95082
3873.47285	0.95088
3871.41905	0.95094
3869.36525	0.94994
3867.31144	0.94920
3865.25764	0.94934
3863.20384	0.94953
3861.15003	0.94967
3859.09623	0.95001
3857.04243	0.95061
3854.98862	0.95139
3852.93482	0.95201
3850.88102	0.95203
3848.82721	0.95175
3846.77341	0.95165
3844.71961	0.95177
3842.66580	0.95171
3840.61200	0.95108
3838.55820	0.95043
3836.50439	0.95086
3834.45059	0.95170
3832.39679	0.95171
3830.34298	0.95105
3828.28918	0.95086
3826.23538	0.95144
3824.18158	0.95162
3822.12777	0.95102
3820.07397	0.95061
3818.02017	0.95084
3815.96636	0.95151
3813.91256	0.95191
3811.85876	0.95154
3809.80495	0.95098
3807.75115	0.95086
3805.69735	0.95102
3803.64354	0.95069
3801.58974	0.95046
3799.53594	0.95120
3797.48213	0.95199
3795.42833	0.95199
3793.37453	0.95152
3791.32072	0.95137
3789.26692	0.95124
3787.21312	0.95081
3785.15931	0.95076
3783.10551	0.95122
3781.05171	0.95144
3778.99790	0.95157
3776.94410	0.95193
3774.89030	0.95209
3772.83650	0.95178
3770.78269	0.95159
3768.72889	0.95195
3766.67509	0.95200
3764.62128	0.95154
3762.56748	0.95113
3760.51368	0.95095
3758.45987	0.95131
3756.40607	0.95189
3754.35227	0.95250
3752.29846	0.95388
3750.24466	0.95487
3748.19086	0.95380
3746.13705	0.95309
3744.08325	0.95393
3742.02945	0.95445
3739.97564	0.95385
3737.92184	0.95313
3735.86804	0.95270
3733.81423	0.95238
3731.76043	0.95250
3729.70663	0.95320
3727.65282	0.95350
3725.59902	0.95304
3723.54522	0.95287
3721.49141	0.95296
3719.43761	0.95255
3717.38381	0.95174
3715.33001	0.95090
3713.27620	0.95060
3711.22240	0.95081
3709.16860	0.94984
3707.11479	0.94851
3705.06099	0.94808
3703.00719	0.94782
3700.95338	0.94684
3698.89958	0.94546
3696.84578	0.94457
3694.79197	0.94467
3692.73817	0.94545
3690.68437	0.94596
3688.63056	0.94605
3686.57676	0.94654
3684.52296	0.94690
3682.46915	0.94672
3680.41535	0.94606
3678.36155	0.94540
3676.30774	0.94527
3674.25394	0.94478
3672.20014	0.94421
3670.14633	0.94461
3668.09253	0.94496
3666.03873	0.94465
3663.98492	0.94409
3661.93112	0.94323
3659.87732	0.94223
3657.82352	0.94145
3655.76971	0.94072
3653.71591	0.93966
3651.66211	0.93883
3649.60830	0.93877
3647.55450	0.93843
3645.50070	0.93737
3643.44689	0.93642
3641.39309	0.93591
3639.33929	0.93541
3637.28548	0.93457
3635.23168	0.93389
3633.17788	0.93300
3631.12407	0.93156
3629.07027	0.93075
3627.01647	0.93098
3624.96266	0.93037
3622.90886	0.92863
3620.85506	0.92672
3618.80125	0.92621
3616.74745	0.92691
3614.69365	0.92690
3612.63984	0.92562
3610.58604	0.92387
3608.53224	0.92269
3606.47844	0.92219
3604.42463	0.92172
3602.37083	0.92116
3600.31703	0.92064
3598.26322	0.92006
3596.20942	0.91956
3594.15562	0.91904
3592.10181	0.91806
3590.04801	0.91679
3587.99421	0.91592
3585.94040	0.91529
3583.88660	0.91403
3581.83280	0.91268
3579.77899	0.91183
3577.72519	0.91147
3575.67139	0.91113
3573.61758	0.91046
3571.56378	0.90972
3569.50998	0.90888
3567.45617	0.90784
3565.40237	0.90671
3563.34857	0.90539
3561.29476	0.90383
3559.24096	0.90247
3557.18716	0.90158
3555.13335	0.90100
3553.07955	0.90082
3551.02575	0.90052
3548.97195	0.89951
3546.91814	0.89826
3544.86434	0.89687
3542.81054	0.89546
3540.75673	0.89460
3538.70293	0.89414
3536.64913	0.89353
3534.59532	0.89271
3532.54152	0.89212
3530.48772	0.89160
3528.43391	0.89084
3526.38011	0.89000
3524.32631	0.88927
3522.27250	0.88872
3520.21870	0.88826
3518.16490	0.88741
3516.11109	0.88600
3514.05729	0.88495
3512.00349	0.88475
3509.94968	0.88467
3507.89588	0.88415
3505.84208	0.88314
3503.78827	0.88193
3501.73447	0.88083
3499.68067	0.87988
3497.62687	0.87924
3495.57306	0.87885
3493.51926	0.87799
3491.46546	0.87663
3489.41165	0.87574
3487.35785	0.87531
3485.30405	0.87478
3483.25024	0.87449
3481.19644	0.87427
3479.14264	0.87338
3477.08883	0.87212
3475.03503	0.87101
3472.98123	0.87007
3470.92742	0.86919
3468.87362	0.86852
3466.81982	0.86809
3464.76601	0.86748
3462.71221	0.86671
3460.65841	0.86619
3458.60460	0.86572
3456.55080	0.86498
3454.49700	0.86413
3452.44319	0.86324
3450.38939	0.86218
3448.33559	0.86106
3446.28178	0.86015
3444.22798	0.85968
3442.17418	0.85925
3440.12038	0.85853
3438.06657	0.85790
3436.01277	0.85700
3433.95897	0.85599
3431.90516	0.85570
3429.85136	0.85572
3427.79756	0.85529
3425.74375	0.85415
3423.68995	0.85282
3421.63615	0.85206
3419.58234	0.85178
3417.52854	0.85173
3415.47474	0.85148
3413.42093	0.85069
3411.36713	0.84987
3409.31333	0.84948
3407.25952	0.84923
3405.20572	0.84859
3403.15192	0.84761
3401.09811	0.84698
3399.04431	0.84695
3396.99051	0.84726
3394.93670	0.84751
3392.88290	0.84726
3390.82910	0.84674
3388.77529	0.84636
3386.72149	0.84613
3384.66769	0.84598
3382.61389	0.84603
3380.56008	0.84628
3378.50628	0.84639
3376.45248	0.84635
3374.39867	0.84630
3372.34487	0.84614
3370.29107	0.84597
3368.23726	0.84621
3366.18346	0.84663
3364.12966	0.84679
3362.07585	0.84678
3360.02205	0.84674
3357.96825	0.84682
3355.91444	0.84704
3353.86064	0.84729
3351.80684	0.84773
3349.75303	0.84819
3347.69923	0.84843
3345.64543	0.84853
3343.59162	0.84865
3341.53782	0.84896
3339.48402	0.84926
3337.43021	0.84927
3335.37641	0.84921
3333.32261	0.84946
3331.26881	0.85016
3329.21500	0.85090
3327.16120	0.85127
3325.10740	0.85166
3323.05359	0.85233
3320.99979	0.85274
3318.94599	0.85300
3316.89218	0.85355
3314.83838	0.85406
3312.78458	0.85459
3310.73077	0.85528
3308.67697	0.85556
3306.62317	0.85531
3304.56936	0.85508
3302.51556	0.85515
3300.46176	0.85570
3298.40795	0.85679
3296.35415	0.85782
3294.30035	0.85842
3292.24654	0.85892
3290.19274	0.85930
3288.13894	0.85942
3286.08513	0.85960
3284.03133	0.85992
3281.97753	0.86024
3279.92372	0.86073
3277.86992	0.86144
3275.81612	0.86189
3273.76232	0.86230
3271.70851	0.86286
3269.65471	0.86302
3267.60091	0.86290
3265.54710	0.86317
3263.49330	0.86395
3261.43950	0.86462
3259.38569	0.86491
3257.33189	0.86523
3255.27809	0.86548
3253.22428	0.86547
3251.17048	0.86573
3249.11668	0.86625
3247.06287	0.86648
3245.00907	0.86680
3242.95527	0.86749
3240.90146	0.86799
3238.84766	0.86809
3236.79386	0.86830
3234.74005	0.86901
3232.68625	0.86966
3230.63245	0.86995
3228.57864	0.87055
3226.52484	0.87151
3224.47104	0.87223
3222.41724	0.87264
3220.36343	0.87302
3218.30963	0.87345
3216.25583	0.87387
3214.20202	0.87430
3212.14822	0.87512
3210.09442	0.87626
3208.04061	0.87711
3205.98681	0.87763
3203.93301	0.87812
3201.87920	0.87893
3199.82540	0.88019
3197.77160	0.88112
3195.71779	0.88154
3193.66399	0.88221
3191.61019	0.88296
3189.55638	0.88312
3187.50258	0.88317
3185.44878	0.88379
3183.39497	0.88480
3181.34117	0.88551
3179.28737	0.88583
3177.23356	0.88633
3175.17976	0.88719
3173.12596	0.88801
3171.07215	0.88862
3169.01835	0.88920
3166.96455	0.88987
3164.91075	0.89031
3162.85694	0.89068
3160.80314	0.89144
3158.74934	0.89221
3156.69553	0.89278
3154.64173	0.89341
3152.58793	0.89379
3150.53412	0.89436
3148.48032	0.89559
3146.42652	0.89674
3144.37271	0.89736
3142.31891	0.89783
3140.26511	0.89839
3138.21130	0.89888
3136.15750	0.89943
3134.10370	0.90013
3132.04989	0.90103
3129.99609	0.90216
3127.94229	0.90290
3125.88848	0.90318
3123.83468	0.90353
3121.78088	0.90382
3119.72707	0.90384
3117.67327	0.90385
3115.61947	0.90394
3113.56566	0.90401
3111.51186	0.90389
3109.45806	0.90327
3107.40426	0.90210
3105.35045	0.90088
3103.29665	0.90009
3101.24285	0.90004
3099.18904	0.90084
3097.13524	0.90203
3095.08144	0.90273
3093.02763	0.90219
3090.97383	0.90039
3088.92003	0.89723
3086.86622	0.89258
3084.81242	0.88756
3082.75862	0.88440
3080.70481	0.88447
3078.65101	0.88716
3076.59721	0.89073
3074.54340	0.89348
3072.48960	0.89471
3070.43580	0.89436
3068.38199	0.89220
3066.32819	0.88793
3064.27439	0.88189
3062.22058	0.87569
3060.16678	0.87189
3058.11298	0.87229
3056.05918	0.87656
3054.00537	0.88287
3051.95157	0.88928
3049.89777	0.89443
3047.84396	0.89760
3045.79016	0.89934
3043.73636	0.90017
3041.68255	0.89950
3039.62875	0.89729
3037.57495	0.89374
3035.52114	0.88805
3033.46734	0.87866
3031.41354	0.86516
3029.35973	0.84977
3027.30593	0.83653
3025.25213	0.82986
3023.19832	0.83309
3021.14452	0.84579
3019.09072	0.86273
3017.03691	0.87810
3014.98311	0.88952
3012.92931	0.89728
3010.87550	0.90243
3008.82170	0.90531
3006.76790	0.90586
3004.71409	0.90467
3002.66029	0.90326
3000.60649	0.90347
2998.55269	0.90605
2996.49888	0.90995
2994.44508	0.91348
2992.39128	0.91607
2990.33747	0.91816
2988.28367	0.92002
2986.22987	0.92128
2984.17606	0.92175
2982.12226	0.92183
2980.06846	0.92181
2978.01465	0.92162
2975.96085	0.92140
2973.90705	0.92131
2971.85324	0.92100
2969.79944	0.92060
2967.74564	0.92023
2965.69183	0.91943
2963.63803	0.91830
2961.58423	0.91704
2959.53042	0.91539
2957.47662	0.91344
2955.42282	0.91143
2953.36901	0.90944
2951.31521	0.90728
2949.26141	0.90441
2947.20761	0.90041
2945.15380	0.89534
2943.10000	0.88943
2941.04620	0.88300
2938.99239	0.87585
2936.93859	0.86765
2934.88479	0.85836
2932.83098	0.84831
2930.77718	0.83845
2928.72338	0.82955
2926.66957	0.82201
2924.61577	0.81641
2922.56197	0.81328
2920.50816	0.81256
2918.45436	0.81401
2916.40056	0.81748
2914.34675	0.82253
2912.29295	0.82869
2910.23915	0.83539
2908.18534	0.84223
2906.13154	0.84909
2904.07774	0.85605
2902.02393	0.86311
2899.97013	0.86988
2897.91633	0.87603
2895.86252	0.88134
2893.80872	0.88556
2891.75492	0.88886
2889.70112	0.89162
2887.64731	0.89412
2885.59351	0.89662
2883.53971	0.89944
2881.48590	0.90210
2879.43210	0.90412
2877.37830	0.90584
2875.32449	0.90722
2873.27069	0.90823
2871.21689	0.90926
2869.16308	0.90996
2867.10928	0.90997
2865.05548	0.90925
2863.00167	0.90737
2860.94787	0.90411
2858.89407	0.89990
2856.84026	0.89507
2854.78646	0.88999
2852.73266	0.88563
2850.67885	0.88338
2848.62505	0.88388
2846.57125	0.88643
2844.51744	0.89060
2842.46364	0.89656
2840.40984	0.90370
2838.35603	0.91048
2836.30223	0.91608
2834.24843	0.92058
2832.19463	0.92380
2830.14082	0.92575
2828.08702	0.92685
2826.03322	0.92775
2823.97941	0.92881
2821.92561	0.92972
2819.87181	0.93012
2817.81800	0.93020
2815.76420	0.93030
2813.71040	0.93052
2811.65659	0.93089
2809.60279	0.93130
2807.54899	0.93151
2805.49518	0.93190
2803.44138	0.93256
2801.38758	0.93288
2799.33377	0.93271
2797.27997	0.93253
2795.22617	0.93288
2793.17236	0.93380
2791.11856	0.93459
2789.06476	0.93486
2787.01095	0.93490
2784.95715	0.93483
2782.90335	0.93471
2780.84955	0.93477
2778.79574	0.93497
2776.74194	0.93497
2774.68814	0.93500
2772.63433	0.93550
2770.58053	0.93607
2768.52673	0.93630
2766.47292	0.93631
2764.41912	0.93632
2762.36532	0.93659
2760.31151	0.93727
2758.25771	0.93794
2756.20391	0.93801
2754.15010	0.93777
2752.09630	0.93765
2750.04250	0.93747
2747.98869	0.93725
2745.93489	0.93727
2743.88109	0.93751
2741.82728	0.93778
2739.77348	0.93798
2737.71968	0.93804
2735.66587	0.93797
2733.61207	0.93795
2731.55827	0.93772
2729.50446	0.93746
2727.45066	0.93785
2725.39686	0.93830
2723.34306	0.93808
2721.28925	0.93761
2719.23545	0.93745
2717.18165	0.93759
2715.12784	0.93794
2713.07404	0.93835
2711.02024	0.93845
2708.96643	0.93826
2706.91263	0.93807
2704.85883	0.93811
2702.80502	0.93838
2700.75122	0.93859
2698.69742	0.93881
2696.64361	0.93901
2694.58981	0.93881
2692.53601	0.93841
2690.48220	0.93836
2688.42840	0.93860
2686.37460	0.93889
2684.32079	0.93912
2682.26699	0.93924
2680.21319	0.93935
2678.15938	0.93937
2676.10558	0.93931
2674.05178	0.93927
2671.99797	0.93923
2669.94417	0.93927
2667.89037	0.93951
2665.83657	0.93958
2663.78276	0.93938
2661.72896	0.93942
2659.67516	0.93984
2657.62135	0.94015
2655.56755	0.94002
2653.51375	0.93958
2651.45994	0.93941
2649.40614	0.93979
2647.35234	0.94003
2645.29853	0.93983
2643.24473	0.93946
2641.19093	0.93918
2639.13712	0.93922
2637.08332	0.93938
2635.02952	0.93948
2632.97571	0.93979
2630.92191	0.94008
2628.86811	0.94027
2626.81430	0.94074
2624.76050	0.94095
2622.70670	0.94065
2620.65289	0.94068
2618.59909	0.94133
2616.54529	0.94180
2614.49149	0.94167
2612.43768	0.94123
2610.38388	0.94117
2608.33008	0.94147
2606.27627	0.94157
2604.22247	0.94156
2602.16867	0.94166
2600.11486	0.94176
2598.06106	0.94138
2596.00726	0.94068
2593.95345	0.94071
2591.89965	0.94172
2589.84585	0.94261
2587.79204	0.94279
2585.73824	0.94248
2583.68444	0.94191
2581.63063	0.94138
2579.57683	0.94136
2577.52303	0.94202
2575.46922	0.94244
2573.41542	0.94196
2571.36162	0.94153
2569.30781	0.94172
2567.25401	0.94209
2565.20021	0.94257
2563.14640	0.94304
2561.09260	0.94336
2559.03880	0.94369
2556.98500	0.94349
2554.93119	0.94264
2552.87739	0.94218
2550.82359	0.94279
2548.76978	0.94370
2546.71598	0.94396
2544.66218	0.94394
2542.60837	0.94373
2540.55457	0.94298
2538.50077	0.94253
2536.44696	0.94289
2534.39316	0.94327
2532.33936	0.94346
2530.28555	0.94369
2528.23175	0.94367
2526.17795	0.94358
2524.12414	0.94362
2522.07034	0.94359
2520.01654	0.94351
2517.96273	0.94339
2515.90893	0.94339
2513.85513	0.94346
2511.80132	0.94354
2509.74752	0.94387
2507.69372	0.94416
2505.63992	0.94446
2503.58611	0.94480
2501.53231	0.94448
2499.47851	0.94352
2497.42470	0.94262
2495.37090	0.94242
2493.31710	0.94271
2491.26329	0.94296
2489.20949	0.94333
2487.15569	0.94375
2485.10188	0.94395
2483.04808	0.94394
2480.99428	0.94383
2478.94047	0.94385
2476.88667	0.94393
2474.83287	0.94392
2472.77906	0.94396
2470.72526	0.94421
2468.67146	0.94450
2466.61765	0.94447
2464.56385	0.94419
2462.51005	0.94407
2460.45624	0.94423
2458.40244	0.94463
2456.34864	0.94489
2454.29483	0.94462
2452.24103	0.94413
2450.18723	0.94409
2448.13343	0.94459
2446.07962	0.94497
2444.02582	0.94507
2441.97202	0.94500
2439.91821	0.94427
2437.86441	0.94339
2435.81061	0.94326
2433.75680	0.94375
2431.70300	0.94433
2429.64920	0.94454
2427.59539	0.94436
2425.54159	0.94425
2423.48779	0.94458
2421.43398	0.94506
2419.38018	0.94510
2417.32638	0.94459
2415.27257	0.94420
2413.21877	0.94404
2411.16497	0.94381
2409.11116	0.94384
2407.05736	0.94417
2405.00356	0.94455
2402.94975	0.94473
2400.89595	0.94454
2398.84215	0.94420
2396.78834	0.94394
2394.73454	0.94366
2392.68074	0.94324
2390.62694	0.94300
2388.57313	0.94310
2386.51933	0.94318
2384.46553	0.94330
2382.41172	0.94364
2380.35792	0.94369
2378.30412	0.94325
2376.25031	0.94278
2374.19651	0.94211
2372.14271	0.94088
2370.08890	0.94064
2368.03510	0.94252
2365.98130	0.94472
2363.92749	0.94533
2361.87369	0.94444
2359.81989	0.94380
2357.76608	0.94385
2355.71228	0.94360
2353.65848	0.94227
2351.60467	0.94108
2349.55087	0.94152
2347.49707	0.94251
2345.44326	0.94295
2343.38946	0.94295
2341.33566	0.94274
2339.28186	0.94183
2337.22805	0.94024
2335.17425	0.93958
2333.12045	0.93995
2331.06664	0.94040
2329.01284	0.94115
2326.95904	0.94143
2324.90523	0.94112
2322.85143	0.94137
2320.79763	0.94181
2318.74382	0.94193
2316.69002	0.94232
2314.63622	0.94260
2312.58241	0.94210
2310.52861	0.94185
2308.47481	0.94250
2306.42100	0.94300
2304.36720	0.94273
2302.31340	0.94193
2300.25959	0.94130
2298.20579	0.94137
2296.15199	0.94178
2294.09818	0.94242
2292.04438	0.94321
2289.99058	0.94330
2287.93677	0.94284
2285.88297	0.94271
2283.82917	0.94316
2281.77537	0.94421
2279.72156	0.94497
2277.66776	0.94483
2275.61396	0.94432
2273.56015	0.94434
2271.50635	0.94547
2269.45255	0.94689
2267.39874	0.94774
2265.34494	0.94759
2263.29114	0.94686
2261.23733	0.94661
2259.18353	0.94673
2257.12973	0.94694
2255.07592	0.94678
2253.02212	0.94625
2250.96832	0.94633
2248.91451	0.94682
2246.86071	0.94700
2244.80691	0.94644
2242.75310	0.94510
2240.69930	0.94438
2238.64550	0.94456
2236.59169	0.94436
2234.53789	0.94449
2232.48409	0.94547
2230.43029	0.94667
2228.37648	0.94735
2226.32268	0.94719
2224.26888	0.94732
2222.21507	0.94789
2220.16127	0.94819
2218.10747	0.94775
2216.05366	0.94689
2213.99986	0.94684
2211.94606	0.94787
2209.89225	0.94855
2207.83845	0.94683
2205.78465	0.94370
2203.73084	0.94243
2201.67704	0.94379
2199.62324	0.94559
2197.56943	0.94607
2195.51563	0.94577
2193.46183	0.94529
2191.40802	0.94511
2189.35422	0.94656
2187.30042	0.94812
2185.24661	0.94732
2183.19281	0.94607
2181.13901	0.94650
2179.08520	0.94646
2177.03140	0.94468
2174.97760	0.94392
2172.92380	0.94551
2170.86999	0.94762
2168.81619	0.94829
2166.76239	0.94828
2164.70858	0.94938
2162.65478	0.95064
2160.60098	0.95168
2158.54717	0.95293
2156.49337	0.95480
2154.43957	0.95695
2152.38576	0.95651
2150.33196	0.95378
2148.27816	0.95258
2146.22435	0.95365
2144.17055	0.95338
2142.11675	0.95087
2140.06294	0.95003
2138.00914	0.95063
2135.95534	0.94965
2133.90153	0.94810
2131.84773	0.94763
2129.79393	0.94792
2127.74012	0.94857
2125.68632	0.94897
2123.63252	0.94844
2121.57871	0.94749
2119.52491	0.94738
2117.47111	0.94806
2115.41731	0.94806
2113.36350	0.94710
2111.30970	0.94618
2109.25590	0.94592
2107.20209	0.94634
2105.14829	0.94689
2103.09449	0.94712
2101.04068	0.94690
2098.98688	0.94601
2096.93308	0.94521
2094.87927	0.94550
2092.82547	0.94633
2090.77167	0.94678
2088.71786	0.94631
2086.66406	0.94565
2084.61026	0.94640
2082.55645	0.94687
2080.50265	0.94559
2078.44885	0.94492
2076.39504	0.94630
2074.34124	0.94796
2072.28744	0.94781
2070.23363	0.94613
2068.17983	0.94531
2066.12603	0.94687
2064.07223	0.94907
2062.01842	0.94999
2059.96462	0.94976
2057.91082	0.94854
2055.85701	0.94712
2053.80321	0.94703
2051.74941	0.94819
2049.69560	0.94929
2047.64180	0.94991
2045.58800	0.95027
2043.53419	0.95021
2041.48039	0.94883
2039.42659	0.94584
2037.37278	0.94527
2035.31898	0.94916
2033.26518	0.95197
2031.21137	0.95105
2029.15757	0.94944
2027.10377	0.94860
2025.04996	0.95014
2022.99616	0.95273
2020.94236	0.95258
2018.88855	0.95173
2016.83475	0.95172
2014.78095	0.95086
2012.72714	0.94981
2010.67334	0.94995
2008.61954	0.95171
2006.56574	0.95286
2004.51193	0.95188
2002.45813	0.95105
2000.40433	0.95163
1998.35052	0.95246
1996.29672	0.95188
1994.24292	0.95015
1992.18911	0.94868
1990.13531	0.94772
1988.08151	0.94743
1986.02770	0.94767
1983.97390	0.94815
1981.92010	0.94880
1979.86629	0.94893
1977.81249	0.94974
1975.75869	0.95138
1973.70488	0.95204
1971.65108	0.95233
1969.59728	0.95183
1967.54347	0.95008
1965.48967	0.94810
1963.43587	0.94596
1961.38206	0.94436
1959.32826	0.94420
1957.27446	0.94413
1955.22066	0.94282
1953.16685	0.94186
1951.11305	0.94170
1949.05925	0.94085
1947.00544	0.94011
1944.95164	0.93970
1942.89784	0.93853
1940.84403	0.93824
1938.79023	0.93970
1936.73643	0.94121
1934.68262	0.94234
1932.62882	0.94409
1930.57502	0.94548
1928.52121	0.94527
1926.46741	0.94501
1924.41361	0.94551
1922.35980	0.94606
1920.30600	0.94666
1918.25220	0.94709
1916.19839	0.94712
1914.14459	0.94722
1912.09079	0.94764
1910.03698	0.94807
1907.98318	0.94841
1905.92938	0.94859
1903.87557	0.94841
1901.82177	0.94796
1899.76797	0.94753
1897.71417	0.94730
1895.66036	0.94699
1893.60656	0.94645
1891.55276	0.94560
1889.49895	0.94424
1887.44515	0.94305
1885.39135	0.94258
1883.33754	0.94245
1881.28374	0.94202
1879.22994	0.94100
1877.17613	0.93973
1875.12233	0.93926
1873.06853	0.93935
1871.01472	0.93922
1868.96092	0.93968
1866.90712	0.94035
1864.85331	0.94043
1862.79951	0.94106
1860.74571	0.94226
1858.69190	0.94347
1856.63810	0.94491
1854.58430	0.94579
1852.53049	0.94588
1850.47669	0.94620
1848.42289	0.94700
1846.36908	0.94791
1844.31528	0.94813
1842.26148	0.94729
1840.20768	0.94683
1838.15387	0.94715
1836.10007	0.94741
1834.04627	0.94752
1831.99246	0.94770
1829.93866	0.94761
1827.88486	0.94725
1825.83105	0.94658
1823.77725	0.94534
1821.72345	0.94418
1819.66964	0.94339
1817.61584	0.94273
1815.56204	0.94242
1813.50823	0.94234
1811.45443	0.94179
1809.40063	0.94049
1807.34682	0.93894
1805.29302	0.93768
1803.23922	0.93708
1801.18541	0.93752
1799.13161	0.93867
1797.07781	0.93953
1795.02400	0.94001
1792.97020	0.94070
1790.91640	0.94182
1788.86260	0.94305
1786.80879	0.94418
1784.75499	0.94479
1782.70119	0.94472
1780.64738	0.94456
1778.59358	0.94448
1776.53978	0.94447
1774.48597	0.94458
1772.43217	0.94446
1770.37837	0.94432
1768.32456	0.94450
1766.27076	0.94434
1764.21696	0.94397
1762.16315	0.94363
1760.10935	0.94267
1758.05555	0.94124
1756.00174	0.93989
1753.94794	0.93890
1751.89414	0.93822
1749.84033	0.93709
1747.78653	0.93536
1745.73273	0.93452
1743.67892	0.93462
1741.62512	0.93457
1739.57132	0.93436
1737.51751	0.93433
1735.46371	0.93439
1733.40991	0.93480
1731.35611	0.93537
1729.30230	0.93528
1727.24850	0.93464
1725.19470	0.93408
1723.14089	0.93350
1721.08709	0.93282
1719.03329	0.93253
1716.97948	0.93306
1714.92568	0.93383
1712.87188	0.93429
1710.81807	0.93440
1708.76427	0.93395
1706.71047	0.93300
1704.65666	0.93215
1702.60286	0.93177
1700.54906	0.93136
1698.49525	0.93018
1696.44145	0.92809
1694.38765	0.92577
1692.33384	0.92423
1690.28004	0.92289
1688.22624	0.92124
1686.17243	0.91955
1684.11863	0.91720
1682.06483	0.91460
1680.01103	0.91264
1677.95722	0.91113
1675.90342	0.91000
1673.84962	0.90873
1671.79581	0.90731
1669.74201	0.90580
1667.68821	0.90435
1665.63440	0.90336
1663.58060	0.90268
1661.52680	0.90192
1659.47299	0.90100
1657.41919	0.90056
1655.36539	0.90079
1653.31158	0.90173
1651.25778	0.90188
1649.20398	0.90098
1647.15017	0.90022
1645.09637	0.90045
1643.04257	0.90099
1640.98876	0.90127
1638.93496	0.90124
1636.88116	0.90159
1634.82735	0.90321
1632.77355	0.90414
1630.71975	0.90416
1628.66594	0.90419
1626.61214	0.90446
1624.55834	0.90493
1622.50454	0.90538
1620.45073	0.90553
1618.39693	0.90567
1616.34313	0.90608
1614.28932	0.90623
1612.23552	0.90507
1610.18172	0.90118
1608.12791	0.89239
1606.07411	0.87780
1604.02031	0.85988
1601.96650	0.84606
1599.91270	0.84528
1597.85890	0.85733
1595.80509	0.87409
1593.75129	0.88798
1591.69749	0.89682
1589.64368	0.90186
1587.58988	0.90293
1585.53608	0.90000
1583.48227	0.89700
1581.42847	0.89886
1579.37467	0.90494
1577.32086	0.91226
1575.26706	0.91838
1573.21326	0.92087
1571.15945	0.92206
1569.10565	0.92390
1567.05185	0.92551
1564.99805	0.92616
1562.94424	0.92652
1560.89044	0.92740
1558.83664	0.92909
1556.78283	0.92903
1554.72903	0.92822
1552.67523	0.92776
1550.62142	0.92723
1548.56762	0.92650
1546.51382	0.92635
1544.46001	0.92714
1542.40621	0.92836
1540.35241	0.92936
1538.29860	0.92987
1536.24480	0.93015
1534.19100	0.93048
1532.13719	0.93103
1530.08339	0.93193
1528.02959	0.93327
1525.97578	0.93460
1523.92198	0.93534
1521.86818	0.93560
1519.81437	0.93573
1517.76057	0.93613
1515.70677	0.93669
1513.65297	0.93672
1511.59916	0.93648
1509.54536	0.93663
1507.49156	0.93633
1505.43775	0.93383
1503.38395	0.93052
1501.33015	0.92452
1499.27634	0.90796
1497.22254	0.86250
1495.16874	0.79425
1493.11493	0.75107
1491.06113	0.75735
1489.00733	0.81168
1486.95352	0.86291
1484.89972	0.88906
1482.84592	0.90379
1480.79211	0.91323
1478.73831	0.91854
1476.68451	0.92119
1474.63070	0.92259
1472.57690	0.92327
1470.52310	0.92330
1468.46929	0.92277
1466.41549	0.92189
1464.36169	0.92042
1462.30788	0.91793
1460.25408	0.91264
1458.20028	0.89007
1456.14648	0.82631
1454.09267	0.76728
1452.03887	0.74181
1449.98507	0.74913
1447.93126	0.77830
1445.87746	0.80716
1443.82366	0.82812
1441.76985	0.84549
1439.71605	0.85981
1437.66225	0.87340
1435.60844	0.88789
1433.55464	0.89808
1431.50084	0.90503
1429.44703	0.91073
1427.39323	0.91445
1425.33943	0.91688
1423.28562	0.91874
1421.23182	0.91985
1419.17802	0.92074
1417.12421	0.92170
1415.07041	0.92244
1413.01661	0.92309
1410.96280	0.92373
1408.90900	0.92432
1406.85520	0.92484
1404.80139	0.92537
1402.74759	0.92568
1400.69379	0.92563
1398.63999	0.92545
1396.58618	0.92532
1394.53238	0.92465
1392.47858	0.92304
1390.42477	0.92095
1388.37097	0.91860
1386.31717	0.91583
1384.26336	0.91302
1382.20956	0.91040
1380.15576	0.90784
1378.10195	0.90546
1376.04815	0.90342
1373.99435	0.90197
1371.94054	0.90153
1369.88674	0.90175
1367.83294	0.90203
1365.77913	0.90248
1363.72533	0.90330
1361.67153	0.90438
1359.61772	0.90561
1357.56392	0.90696
1355.51012	0.90812
1353.45631	0.90893
1351.40251	0.90950
1349.34871	0.90986
1347.29491	0.91044
1345.24110	0.91150
1343.18730	0.91283
1341.13350	0.91429
1339.07969	0.91538
1337.02589	0.91552
1334.97209	0.91473
1332.91828	0.91300
1330.86448	0.91109
1328.81068	0.91016
1326.75687	0.91025
1324.70307	0.91084
1322.64927	0.91167
1320.59546	0.91250
1318.54166	0.91270
1316.48786	0.91208
1314.43405	0.91138
1312.38025	0.91113
1310.32645	0.91135
1308.27264	0.91220
1306.21884	0.91352
1304.16504	0.91480
1302.11123	0.91619
1300.05743	0.91765
1298.00363	0.91856
1295.94982	0.91887
1293.89602	0.91901
1291.84222	0.91923
1289.78842	0.91953
1287.73461	0.91963
1285.68081	0.91926
1283.62701	0.91873
1281.57320	0.91832
1279.51940	0.91811
1277.46560	0.91836
1275.41179	0.91868
1273.35799	0.91875
1271.30419	0.91892
1269.25038	0.91922
1267.19658	0.91952
1265.14278	0.92012
1263.08897	0.92098
1261.03517	0.92189
1258.98137	0.92274
1256.92756	0.92310
1254.87376	0.92308
1252.81996	0.92303
1250.76615	0.92289
1248.71235	0.92265
1246.65855	0.92267
1244.60474	0.92293
1242.55094	0.92316
1240.49714	0.92335
1238.44334	0.92345
1236.38953	0.92341
1234.33573	0.92323
1232.28193	0.92311
1230.22812	0.92313
1228.17432	0.92290
1226.12052	0.92248
1224.06671	0.92225
1222.01291	0.92218
1219.95911	0.92185
1217.90530	0.92105
1215.85150	0.91987
1213.79770	0.91862
1211.74389	0.91762
1209.69009	0.91652
1207.63629	0.91476
1205.58248	0.91269
1203.52868	0.91062
1201.47488	0.90825
1199.42107	0.90555
1197.36727	0.90313
1195.31347	0.90132
1193.25966	0.89970
1191.20586	0.89779
1189.15206	0.89517
1187.09825	0.89136
1185.04445	0.88656
1182.99065	0.88161
1180.93685	0.87783
1178.88304	0.87696
1176.82924	0.87862
1174.77544	0.88018
1172.72163	0.88043
1170.66783	0.87992
1168.61403	0.87868
1166.56022	0.87661
1164.50642	0.87415
1162.45262	0.87108
1160.39881	0.86641
1158.34501	0.85989
1156.29121	0.85311
1154.23740	0.84895
1152.18360	0.84927
1150.12980	0.85256
1148.07599	0.85555
1146.02219	0.85689
1143.96839	0.85730
1141.91458	0.85752
1139.86078	0.85752
1137.80698	0.85723
1135.75317	0.85715
1133.69937	0.85722
1131.64557	0.85672
1129.59176	0.85554
1127.53796	0.85399
1125.48416	0.85218
1123.43036	0.85000
1121.37655	0.84713
1119.32275	0.84357
1117.26895	0.83988
1115.21514	0.83658
1113.16134	0.83395
1111.10754	0.83209
1109.05373	0.83080
1106.99993	0.82985
1104.94613	0.82945
1102.89232	0.82946
1100.83852	0.82932
1098.78472	0.82890
1096.73091	0.82858
1094.67711	0.82884
1092.62331	0.82952
1090.56950	0.82990
1088.51570	0.82998
1086.46190	0.82992
1084.40809	0.82912
1082.35429	0.82796
1080.30049	0.82711
1078.24668	0.82605
1076.19288	0.82397
1074.13908	0.82063
1072.08528	0.81679
1070.03147	0.81417
1067.97767	0.81385
1065.92387	0.81593
1063.87006	0.81981
1061.81626	0.82384
1059.76246	0.82684
1057.70865	0.82912
1055.65485	0.83097
1053.60105	0.83230
1051.54724	0.83295
1049.49344	0.83268
1047.43964	0.83188
1045.38583	0.83115
1043.33203	0.83033
1041.27823	0.82882
1039.22442	0.82618
1037.17062	0.82100
1035.11682	0.81077
1033.06301	0.79536
1031.00921	0.77924
1028.95541	0.76884
1026.90160	0.76864
1024.84780	0.77775
1022.79400	0.78990
1020.74019	0.79997
1018.68639	0.80725
1016.63259	0.81248
1014.57879	0.81631
1012.52498	0.81946
1010.47118	0.82231
1008.41738	0.82423
1006.36357	0.82492
1004.30977	0.82584
1002.25597	0.82915
1000.20216	0.83512
998.14836	0.84150
996.09456	0.84656
994.04075	0.85065
991.98695	0.85442
989.93315	0.85756
987.87934	0.85974
985.82554	0.86127
983.77174	0.86262
981.71793	0.86446
979.66413	0.86729
977.61033	0.87096
975.55652	0.87479
973.50272	0.87815
971.44892	0.88048
969.39511	0.88133
967.34131	0.88118
965.28751	0.88095
963.23371	0.88169
961.17990	0.88426
959.12610	0.88801
957.07230	0.89112
955.01849	0.89314
952.96469	0.89469
950.91089	0.89572
948.85708	0.89602
946.80328	0.89572
944.74948	0.89531
942.69567	0.89545
940.64187	0.89619
938.58807	0.89782
936.53426	0.90022
934.48046	0.90210
932.42666	0.90332
930.37285	0.90471
928.31905	0.90582
926.26525	0.90602
924.21144	0.90555
922.15764	0.90464
920.10384	0.90309
918.05003	0.90047
915.99623	0.89595
913.94243	0.88916
911.88862	0.88118
909.83482	0.87376
907.78102	0.86883
905.72722	0.86870
903.67341	0.87386
901.61961	0.88233
899.56581	0.89183
897.51200	0.90000
895.45820	0.90540
893.40440	0.90919
891.35059	0.91251
889.29679	0.91469
887.24299	0.91549
885.18918	0.91574
883.13538	0.91610
881.08158	0.91636
879.02777	0.91654
876.97397	0.91722
874.92017	0.91802
872.86636	0.91842
870.81256	0.91896
868.75876	0.92003
866.70495	0.92132
864.65115	0.92201
862.59735	0.92162
860.54354	0.92107
858.48974	0.92088
856.43594	0.92054
854.38213	0.91977
852.32833	0.91864
850.27453	0.91676
848.22073	0.91351
846.16692	0.90944
844.11312	0.90612
842.05932	0.90428
840.00551	0.90421
837.95171	0.90658
835.89791	0.91072
833.84410	0.91446
831.79030	0.91657
829.73650	0.91727
827.68269	0.91758
825.62889	0.91813
823.57509	0.91815
821.52128	0.91733
819.46748	0.91689
817.41368	0.91726
815.35987	0.91730
813.30607	0.91675
811.25227	0.91594
809.19846	0.91493
807.14466	0.91401
805.09086	0.91348
803.03705	0.91309
800.98325	0.91145
798.92945	0.90885
796.87565	0.90724
794.82184	0.90638
792.76804	0.90450
790.71424	0.90084
788.66043	0.89646
786.60663	0.89249
784.55283	0.88860
782.49902	0.88347
780.44522	0.87593
778.39142	0.86568
776.33761	0.85249
774.28381	0.83629
772.23001	0.81738
770.17620	0.79585
768.12240	0.77303
766.06860	0.75078
764.01479	0.72944
761.96099	0.70871
759.90719	0.68907
757.85338	0.67277
755.79958	0.66314
753.74578	0.66069
751.69197	0.66214
749.63817	0.66472
747.58437	0.67047
745.53056	0.68497
743.47676	0.71036
741.42296	0.74170
739.36916	0.77212
737.31535	0.79866
735.26155	0.82184
733.20775	0.84181
731.15394	0.85733
729.10014	0.86820
727.04634	0.87562
724.99253	0.88041
722.93873	0.88349
720.88493	0.88583
718.83112	0.88667
716.77732	0.88497
714.72352	0.88012
712.66971	0.86892
710.61591	0.84566
708.56211	0.80322
706.50830	0.73569
704.45450	0.64351
702.40070	0.53444
700.34689	0.41866
698.29309	0.31109
696.23929	0.24603
694.18548	0.26781
692.13168	0.37548
690.07788	0.50951
688.02408	0.61505
685.97027	0.68270
683.91647	0.72518
681.86267	0.75171
679.80886	0.76855
677.75506	0.78096
675.70126	0.79066
673.64745	0.79775
671.59365	0.80279
669.53985	0.80811
667.48604	0.81542
665.43224	0.82077
663.37844	0.82469
661.32463	0.82934
659.27083	0.83415
657.21703	0.83777
655.16322	0.83955
653.10942	0.84050
651.05562	0.84213
649.00181	0.84414
646.94801	0.84606
644.89421	0.84739
642.84040	0.84775
640.78660	0.84814
638.73280	0.84819
636.67899	0.84644
634.62519	0.84392
632.57139	0.84298
630.51759	0.84342
628.46378	0.84356
626.40998	0.84286
624.35618	0.84152
622.30237	0.83997
620.24857	0.83947
618.19477	0.84053
616.14096	0.84166
614.08716	0.84269
612.03336	0.84472
609.97955	0.84633
607.92575	0.84587
605.87195	0.84407
603.81814	0.84237
601.76434	0.84133
599.71054	0.84085
597.65673	0.84115
595.60293	0.84136
593.54913	0.84098
591.49532	0.84119
589.44152	0.84164
587.38772	0.84088
585.33391	0.83889
583.28011	0.83665
581.22631	0.83404
579.17250	0.83022
577.11870	0.82513
575.06490	0.81958
573.01110	0.81448
570.95729	0.80915
568.90349	0.80344
566.84969	0.79821
564.79588	0.79265
562.74208	0.78659
560.68828	0.78119
558.63447	0.77572
556.58067	0.76909
554.52687	0.76125
552.47306	0.75347
550.41926	0.74644
548.36546	0.73692
546.31165	0.72257
544.25785	0.70605
542.20405	0.69167
540.15024	0.68251
538.09644	0.68118
536.04264	0.68891
533.98883	0.70379
531.93503	0.72225
529.88123	0.74173
527.82742	0.76118
525.77362	0.77858
523.71982	0.79086
521.66602	0.80064
519.61221	0.81041
517.55841	0.81703
515.50461	0.82090
513.45080	0.82512
511.39700	0.82967
509.34320	0.83370
507.28939	0.83659
505.23559	0.84002
503.18179	0.84453
501.12798	0.84755
499.07418	0.84976
497.02038	0.85221
494.96657	0.85328
492.91277	0.85434
490.85897	0.85657
488.80516	0.85628
486.75136	0.85280
484.69756	0.85082
482.64375	0.85168
480.58995	0.85100
478.53615	0.84847
476.48234	0.84702
474.42854	0.84562
472.37474	0.84242
470.32093	0.83824
468.26713	0.83530
466.21333	0.83446
464.15953	0.83606
462.10572	0.84143
460.05192	0.84751
457.99812	0.85014
455.94431	0.85019
453.89051	0.84969
451.83671	0.85023
449.78290	0.85190
447.72910	0.85222
445.67530	0.85080
443.62149	0.85179
441.56769	0.85654
439.51389	0.85994
437.46008	0.85980
435.40628	0.85898
433.35248	0.85836
431.29867	0.85694
429.24487	0.85728
427.19107	0.85986
425.13726	0.86071
423.08346	0.85743
421.02966	0.85473
418.97585	0.85904
416.92205	0.86330
414.86825	0.86110
412.81445	0.85935
410.76064	0.86156
408.70684	0.86375
406.65304	0.86446
404.59923	0.86756
402.54543	0.87544
400.49163	0.88514
398.43782	0.88447
