3996.70104	0.94462
3994.64724	0.94488
3992.59344	0.94498
3990.53964	0.94459
3988.48583	0.94459
3986.43203	0.94511
3984.37823	0.94535
3982.32442	0.94531
3980.27062	0.94531
3978.21682	0.94553
3976.16301	0.94565
3974.10921	0.94516
3972.05541	0.94473
3970.00160	0.94524
3967.94780	0.94585
3965.89400	0.94567
3963.84019	0.94526
3961.78639	0.94506
3959.73259	0.94501
3957.67878	0.94501
3955.62498	0.94497
3953.57118	0.94502
3951.51737	0.94508
3949.46357	0.94492
3947.40977	0.94470
3945.35596	0.94444
3943.30216	0.94425
3941.24836	0.94462
3939.19455	0.94503
3937.14075	0.94496
3935.08695	0.94508
3933.03315	0.94576
3930.97934	0.94624
3928.92554	0.94598
3926.87174	0.94551
3924.81793	0.94512
3922.76413	0.94471
3920.71033	0.94448
3918.65652	0.94472
3916.60272	0.94513
3914.54892	0.94535
3912.49511	0.94581
3910.44131	0.94660
3908.38751	0.94690
3906.33370	0.94633
3904.27990	0.94533
3902.22610	0.94461
3900.17229	0.94474
3898.11849	0.94530
3896.06469	0.94549
3894.01088	0.94535
3891.95708	0.94547
3889.90328	0.94536
3887.84947	0.94453
3885.79567	0.94423
3883.74187	0.94523
3881.68807	0.94598
3879.63426	0.94578
3877.58046	0.94539
3875.52666	0.94537
3873.47285	0.94580
3871.41905	0.94589
3869.36525	0.94489
3867.31144	0.94376
3865.25764	0.94371
3863.20384	0.94495
3861.15003	0.94598
3859.09623	0.94596
3857.04243	0.94560
3854.98862	0.94582
3852.93482	0.94711
3850.88102	0.94745
3848.82721	0.94682
3846.77341	0.94613
3844.71961	0.94529
3842.66580	0.94466
3840.61200	0.94455
3838.55820	0.94441
3836.50439	0.94471
3834.45059	0.94542
3832.39679	0.94568
3830.34298	0.94570
3828.28918	0.94597
3826.23538	0.94633
3824.18158	0.94649
3822.12777	0.94637
3820.07397	0.94573
3818.02017	0.94496
3815.96636	0.94485
3813.91256	0.94564
3811.85876	0.94634
3809.80495	0.94666
3807.75115	0.94676
3805.69735	0.94676
3803.64354	0.94693
3801.58974	0.94688
3799.53594	0.94607
3797.48213	0.94555
3795.42833	0.94596
3793.37453	0.94660
3791.32072	0.94685
3789.26692	0.94656
3787.21312	0.94624
3785.15931	0.94669
3783.10551	0.94723
3781.05171	0.94718
3778.99790	0.94715
3776.94410	0.94717
3774.89030	0.94702
3772.83650	0.94698
3770.78269	0.94687
3768.72889	0.94662
3766.67509	0.94663
3764.62128	0.94702
3762.56748	0.94739
3760.51368	0.94733
3758.45987	0.94717
3756.40607	0.94708
3754.35227	0.94700
3752.29846	0.94720
3750.24466	0.94798
3748.19086	0.94861
3746.13705	0.94846
3744.08325	0.94806
3742.02945	0.94794
3739.97564	0.94781
3737.92184	0.94804
3735.86804	0.94881
3733.81423	0.94880
3731.76043	0.94821
3729.70663	0.94830
3727.65282	0.94887
3725.59902	0.94957
3723.54522	0.94965
3721.49141	0.94872
3719.43761	0.94810
3717.38381	0.94815
3715.33001	0.94756
3713.27620	0.94628
3711.22240	0.94520
3709.16860	0.94450
3707.11479	0.94404
3705.06099	0.94378
3703.00719	0.94369
3700.95338	0.94325
3698.89958	0.94228
3696.84578	0.94173
3694.79197	0.94144
3692.73817	0.94089
3690.68437	0.94069
3688.63056	0.94132
3686.57676	0.94211
3684.52296	0.94265
3682.46915	0.94318
3680.41535	0.94366
3678.36155	0.94356
3676.30774	0.94312
3674.25394	0.94302
3672.20014	0.94323
3670.14633	0.94376
3668.09253	0.94392
3666.03873	0.94311
3663.98492	0.94205
3661.93112	0.94119
3659.87732	0.94030
3657.82352	0.94020
3655.76971	0.94124
3653.71591	0.94155
3651.66211	0.94044
3649.60830	0.93850
3647.55450	0.93772
3645.50070	0.93821
3643.44689	0.93813
3641.39309	0.93750
3639.33929	0.93738
3637.28548	0.93783
3635.23168	0.93794
3633.17788	0.93738
3631.12407	0.93692
3629.07027	0.93635
3627.01647	0.93542
3624.96266	0.93502
3622.90886	0.93483
3620.85506	0.93488
3618.80125	0.93448
3616.74745	0.93354
3614.69365	0.93345
3612.63984	0.93371
3610.58604	0.93332
3608.53224	0.93303
3606.47844	0.93320
3604.42463	0.93320
3602.37083	0.93331
3600.31703	0.93358
3598.26322	0.93340
3596.20942	0.93261
3594.15562	0.93169
3592.10181	0.93138
3590.04801	0.93155
3587.99421	0.93172
3585.94040	0.93188
3583.88660	0.93198
3581.83280	0.93163
3579.77899	0.93108
3577.72519	0.93087
3575.67139	0.93093
3573.61758	0.93075
3571.56378	0.93021
3569.50998	0.93005
3567.45617	0.93010
3565.40237	0.92880
3563.34857	0.92746
3561.29476	0.92739
3559.24096	0.92755
3557.18716	0.92718
3555.13335	0.92670
3553.07955	0.92665
3551.02575	0.92700
3548.97195	0.92694
3546.91814	0.92621
3544.86434	0.92552
3542.81054	0.92549
3540.75673	0.92596
3538.70293	0.92641
3536.64913	0.92625
3534.59532	0.92570
3532.54152	0.92529
3530.48772	0.92507
3528.43391	0.92482
3526.38011	0.92432
3524.32631	0.92364
3522.27250	0.92279
3520.21870	0.92230
3518.16490	0.92275
3516.11109	0.92348
3514.05729	0.92341
3512.00349	0.92253
3509.94968	0.92172
3507.89588	0.92134
3505.84208	0.92131
3503.78827	0.92154
3501.73447	0.92172
3499.68067	0.92151
3497.62687	0.92122
3495.57306	0.92104
3493.51926	0.92043
3491.46546	0.91958
3489.41165	0.91944
3487.35785	0.91995
3485.30405	0.91996
3483.25024	0.91924
3481.19644	0.91860
3479.14264	0.91836
3477.08883	0.91836
3475.03503	0.91850
3472.98123	0.91840
3470.92742	0.91759
3468.87362	0.91650
3466.81982	0.91558
3464.76601	0.91478
3462.71221	0.91438
3460.65841	0.91449
3458.60460	0.91473
3456.55080	0.91486
3454.49700	0.91464
3452.44319	0.91406
3450.38939	0.91362
3448.33559	0.91327
3446.28178	0.91285
3444.22798	0.91290
3442.17418	0.91299
3440.12038	0.91243
3438.06657	0.91186
3436.01277	0.91185
3433.95897	0.91188
3431.90516	0.91169
3429.85136	0.91162
3427.79756	0.91140
3425.74375	0.91104
3423.68995	0.91115
3421.63615	0.91157
3419.58234	0.91164
3417.52854	0.91133
3415.47474	0.91102
3413.42093	0.91087
3411.36713	0.91074
3409.31333	0.91069
3407.25952	0.91087
3405.20572	0.91094
3403.15192	0.91049
3401.09811	0.90985
3399.04431	0.90939
3396.99051	0.90917
3394.93670	0.90955
3392.88290	0.91011
3390.82910	0.90991
3388.77529	0.90932
3386.72149	0.90922
3384.66769	0.90954
3382.61389	0.90940
3380.56008	0.90875
3378.50628	0.90843
3376.45248	0.90860
3374.39867	0.90885
3372.34487	0.90902
3370.29107	0.90904
3368.23726	0.90877
3366.18346	0.90847
3364.12966	0.90830
3362.07585	0.90829
3360.02205	0.90837
3357.96825	0.90846
3355.91444	0.90863
3353.86064	0.90851
3351.80684	0.90800
3349.75303	0.90774
3347.69923	0.90772
3345.64543	0.90745
3343.59162	0.90710
3341.53782	0.90703
3339.48402	0.90727
3337.43021	0.90763
3335.37641	0.90781
3333.32261	0.90776
3331.26881	0.90756
3329.21500	0.90731
3327.16120	0.90718
3325.10740	0.90753
3323.05359	0.90806
3320.99979	0.90816
3318.94599	0.90817
3316.89218	0.90830
3314.83838	0.90818
3312.78458	0.90779
3310.73077	0.90759
3308.67697	0.90792
3306.62317	0.90835
3304.56936	0.90830
3302.51556	0.90797
3300.46176	0.90785
3298.40795	0.90799
3296.35415	0.90804
3294.30035	0.90791
3292.24654	0.90773
3290.19274	0.90770
3288.13894	0.90801
3286.08513	0.90827
3284.03133	0.90790
3281.97753	0.90743
3279.92372	0.90784
3277.86992	0.90852
3275.81612	0.90833
3273.76232	0.90781
3271.70851	0.90777
3269.65471	0.90806
3267.60091	0.90823
3265.54710	0.90814
3263.49330	0.90798
3261.43950	0.90784
3259.38569	0.90796
3257.33189	0.90851
3255.27809	0.90879
3253.22428	0.90842
3251.17048	0.90812
3249.11668	0.90811
3247.06287	0.90829
3245.00907	0.90895
3242.95527	0.90975
3240.90146	0.91006
3238.84766	0.90997
3236.79386	0.90973
3234.74005	0.90958
3232.68625	0.90989
3230.63245	0.91038
3228.57864	0.91074
3226.52484	0.91090
3224.47104	0.91090
3222.41724	0.91077
3220.36343	0.91068
3218.30963	0.91099
3216.25583	0.91163
3214.20202	0.91208
3212.14822	0.91225
3210.09442	0.91243
3208.04061	0.91247
3205.98681	0.91250
3203.93301	0.91287
3201.87920	0.91333
3199.82540	0.91368
3197.77160	0.91390
3195.71779	0.91393
3193.66399	0.91391
3191.61019	0.91403
3189.55638	0.91430
3187.50258	0.91471
3185.44878	0.91510
3183.39497	0.91537
3181.34117	0.91579
3179.28737	0.91631
3177.23356	0.91657
3175.17976	0.91658
3173.12596	0.91673
3171.07215	0.91712
3169.01835	0.91728
3166.96455	0.91743
3164.91075	0.91808
3162.85694	0.91871
3160.80314	0.91859
3158.74934	0.91824
3156.69553	0.91842
3154.64173	0.91909
3152.58793	0.91996
3150.53412	0.92066
3148.48032	0.92109
3146.42652	0.92139
3144.37271	0.92143
3142.31891	0.92130
3140.26511	0.92113
3138.21130	0.92101
3136.15750	0.92132
3134.10370	0.92200
3132.04989	0.92248
3129.99609	0.92272
3127.94229	0.92288
3125.88848	0.92311
3123.83468	0.92348
3121.78088	0.92366
3119.72707	0.92352
3117.67327	0.92325
3115.61947	0.92307
3113.56566	0.92297
3111.51186	0.92287
3109.45806	0.92284
3107.40426	0.92271
3105.35045	0.92248
3103.29665	0.92231
3101.24285	0.92226
3099.18904	0.92238
3097.13524	0.92269
3095.08144	0.92280
3093.02763	0.92207
3090.97383	0.92061
3088.92003	0.91875
3086.86622	0.91643
3084.81242	0.91401
3082.75862	0.91227
3080.70481	0.91173
3078.65101	0.91274
3076.59721	0.91472
3074.54340	0.91644
3072.48960	0.91730
3070.43580	0.91671
3068.38199	0.91459
3066.32819	0.91208
3064.27439	0.90964
3062.22058	0.90729
3060.16678	0.90591
3058.11298	0.90626
3056.05918	0.90837
3054.00537	0.91149
3051.95157	0.91432
3049.89777	0.91644
3047.84396	0.91815
3045.79016	0.91931
3043.73636	0.91974
3041.68255	0.91913
3039.62875	0.91745
3037.57495	0.91508
3035.52114	0.91187
3033.46734	0.90709
3031.41354	0.90031
3029.35973	0.89279
3027.30593	0.88660
3025.25213	0.88354
3023.19832	0.88558
3021.14452	0.89229
3019.09072	0.90022
3017.03691	0.90684
3014.98311	0.91184
3012.92931	0.91542
3010.87550	0.91735
3008.82170	0.91796
3006.76790	0.91818
3004.71409	0.91830
3002.66029	0.91832
3000.60649	0.91868
2998.55269	0.91991
2996.49888	0.92180
2994.44508	0.92354
2992.39128	0.92461
2990.33747	0.92515
2988.28367	0.92560
2986.22987	0.92589
2984.17606	0.92576
2982.12226	0.92515
2980.06846	0.92411
2978.01465	0.92305
2975.96085	0.92210
2973.90705	0.92099
2971.85324	0.91957
2969.79944	0.91764
2967.74564	0.91525
2965.69183	0.91257
2963.63803	0.90969
2961.58423	0.90684
2959.53042	0.90426
2957.47662	0.90225
2955.42282	0.90067
2953.36901	0.89935
2951.31521	0.89867
2949.26141	0.89812
2947.20761	0.89621
2945.15380	0.89273
2943.10000	0.88824
2941.04620	0.88268
2938.99239	0.87607
2936.93859	0.86858
2934.88479	0.86012
2932.83098	0.85059
2930.77718	0.84053
2928.72338	0.83074
2926.66957	0.82162
2924.61577	0.81366
2922.56197	0.80765
2920.50816	0.80418
2918.45436	0.80382
2916.40056	0.80745
2914.34675	0.81477
2912.29295	0.82422
2910.23915	0.83421
2908.18534	0.84334
2906.13154	0.85090
2904.07774	0.85724
2902.02393	0.86298
2899.97013	0.86818
2897.91633	0.87276
2895.86252	0.87698
2893.80872	0.88109
2891.75492	0.88501
2889.70112	0.88861
2887.64731	0.89182
2885.59351	0.89453
2883.53971	0.89656
2881.48590	0.89779
2879.43210	0.89854
2877.37830	0.89916
2875.32449	0.89952
2873.27069	0.89954
2871.21689	0.89971
2869.16308	0.89977
2867.10928	0.89883
2865.05548	0.89686
2863.00167	0.89390
2860.94787	0.88930
2858.89407	0.88300
2856.84026	0.87588
2854.78646	0.86864
2852.73266	0.86219
2850.67885	0.85870
2848.62505	0.86053
2846.57125	0.86774
2844.51744	0.87757
2842.46364	0.88717
2840.40984	0.89550
2838.35603	0.90246
2836.30223	0.90783
2834.24843	0.91178
2832.19463	0.91499
2830.14082	0.91773
2828.08702	0.91979
2826.03322	0.92117
2823.97941	0.92216
2821.92561	0.92316
2819.87181	0.92412
2817.81800	0.92482
2815.76420	0.92535
2813.71040	0.92594
2811.65659	0.92658
2809.60279	0.92695
2807.54899	0.92724
2805.49518	0.92788
2803.44138	0.92842
2801.38758	0.92887
2799.33377	0.92958
2797.27997	0.92999
2795.22617	0.92995
2793.17236	0.92998
2791.11856	0.93022
2789.06476	0.93042
2787.01095	0.93052
2784.95715	0.93075
2782.90335	0.93117
2780.84955	0.93162
2778.79574	0.93182
2776.74194	0.93170
2774.68814	0.93155
2772.63433	0.93172
2770.58053	0.93199
2768.52673	0.93226
2766.47292	0.93288
2764.41912	0.93356
2762.36532	0.93379
2760.31151	0.93369
2758.25771	0.93348
2756.20391	0.93334
2754.15010	0.93338
2752.09630	0.93349
2750.04250	0.93355
2747.98869	0.93391
2745.93489	0.93450
2743.88109	0.93466
2741.82728	0.93424
2739.77348	0.93389
2737.71968	0.93406
2735.66587	0.93448
2733.61207	0.93477
2731.55827	0.93477
2729.50446	0.93449
2727.45066	0.93444
2725.39686	0.93496
2723.34306	0.93538
2721.28925	0.93526
2719.23545	0.93522
2717.18165	0.93559
2715.12784	0.93602
2713.07404	0.93616
2711.02024	0.93595
2708.96643	0.93572
2706.91263	0.93575
2704.85883	0.93578
2702.80502	0.93571
2700.75122	0.93579
2698.69742	0.93587
2696.64361	0.93592
2694.58981	0.93605
2692.53601	0.93627
2690.48220	0.93657
2688.42840	0.93682
2686.37460	0.93692
2684.32079	0.93689
2682.26699	0.93674
2680.21319	0.93668
2678.15938	0.93693
2676.10558	0.93723
2674.05178	0.93720
2671.99797	0.93699
2669.94417	0.93677
2667.89037	0.93667
2665.83657	0.93680
2663.78276	0.93691
2661.72896	0.93679
2659.67516	0.93674
2657.62135	0.93673
2655.56755	0.93657
2653.51375	0.93665
2651.45994	0.93709
2649.40614	0.93748
2647.35234	0.93754
2645.29853	0.93754
2643.24473	0.93761
2641.19093	0.93749
2639.13712	0.93747
2637.08332	0.93778
2635.02952	0.93786
2632.97571	0.93778
2630.92191	0.93832
2628.86811	0.93894
2626.81430	0.93903
2624.76050	0.93910
2622.70670	0.93918
2620.65289	0.93914
2618.59909	0.93924
2616.54529	0.93946
2614.49149	0.93961
2612.43768	0.93966
2610.38388	0.93957
2608.33008	0.93946
2606.27627	0.93962
2604.22247	0.93956
2602.16867	0.93910
2600.11486	0.93925
2598.06106	0.93999
2596.00726	0.94045
2593.95345	0.94060
2591.89965	0.94103
2589.84585	0.94142
2587.79204	0.94116
2585.73824	0.94076
2583.68444	0.94077
2581.63063	0.94099
2579.57683	0.94119
2577.52303	0.94143
2575.46922	0.94177
2573.41542	0.94217
2571.36162	0.94237
2569.30781	0.94223
2567.25401	0.94198
2565.20021	0.94206
2563.14640	0.94259
2561.09260	0.94284
2559.03880	0.94211
2556.98500	0.94109
2554.93119	0.94111
2552.87739	0.94204
2550.82359	0.94270
2548.76978	0.94280
2546.71598	0.94270
2544.66218	0.94251
2542.60837	0.94254
2540.55457	0.94298
2538.50077	0.94315
2536.44696	0.94276
2534.39316	0.94243
2532.33936	0.94265
2530.28555	0.94307
2528.23175	0.94300
2526.17795	0.94252
2524.12414	0.94216
2522.07034	0.94255
2520.01654	0.94357
2517.96273	0.94384
2515.90893	0.94312
2513.85513	0.94263
2511.80132	0.94264
2509.74752	0.94262
2507.69372	0.94257
2505.63992	0.94282
2503.58611	0.94324
2501.53231	0.94357
2499.47851	0.94373
2497.42470	0.94354
2495.37090	0.94322
2493.31710	0.94346
2491.26329	0.94373
2489.20949	0.94364
2487.15569	0.94400
2485.10188	0.94454
2483.04808	0.94425
2480.99428	0.94363
2478.94047	0.94371
2476.88667	0.94423
2474.83287	0.94456
2472.77906	0.94483
2470.72526	0.94489
2468.67146	0.94450
2466.61765	0.94386
2464.56385	0.94299
2462.51005	0.94268
2460.45624	0.94341
2458.40244	0.94428
2456.34864	0.94494
2454.29483	0.94521
2452.24103	0.94512
2450.18723	0.94536
2448.13343	0.94597
2446.07962	0.94658
2444.02582	0.94675
2441.97202	0.94635
2439.91821	0.94595
2437.86441	0.94583
2435.81061	0.94551
2433.75680	0.94524
2431.70300	0.94525
2429.64920	0.94487
2427.59539	0.94471
2425.54159	0.94545
2423.48779	0.94582
2421.43398	0.94552
2419.38018	0.94552
2417.32638	0.94566
2415.27257	0.94550
2413.21877	0.94514
2411.16497	0.94504
2409.11116	0.94517
2407.05736	0.94522
2405.00356	0.94546
2402.94975	0.94579
2400.89595	0.94577
2398.84215	0.94553
2396.78834	0.94538
2394.73454	0.94558
2392.68074	0.94601
2390.62694	0.94621
2388.57313	0.94609
2386.51933	0.94588
2384.46553	0.94598
2382.41172	0.94628
2380.35792	0.94579
2378.30412	0.94481
2376.25031	0.94464
2374.19651	0.94526
2372.14271	0.94648
2370.08890	0.94718
2368.03510	0.94626
2365.98130	0.94501
2363.92749	0.94425
2361.87369	0.94381
2359.81989	0.94373
2357.76608	0.94423
2355.71228	0.94522
2353.65848	0.94557
2351.60467	0.94499
2349.55087	0.94474
2347.49707	0.94477
2345.44326	0.94466
2343.38946	0.94503
2341.33566	0.94563
2339.28186	0.94585
2337.22805	0.94539
2335.17425	0.94441
2333.12045	0.94386
2331.06664	0.94351
2329.01284	0.94288
2326.95904	0.94241
2324.90523	0.94235
2322.85143	0.94279
2320.79763	0.94364
2318.74382	0.94438
2316.69002	0.94444
2314.63622	0.94358
2312.58241	0.94277
2310.52861	0.94296
2308.47481	0.94373
2306.42100	0.94449
2304.36720	0.94491
2302.31340	0.94530
2300.25959	0.94568
2298.20579	0.94572
2296.15199	0.94533
2294.09818	0.94480
2292.04438	0.94448
2289.99058	0.94420
2287.93677	0.94407
2285.88297	0.94422
2283.82917	0.94428
2281.77537	0.94446
2279.72156	0.94484
2277.66776	0.94498
2275.61396	0.94548
2273.56015	0.94687
2271.50635	0.94779
2269.45255	0.94733
2267.39874	0.94660
2265.34494	0.94672
2263.29114	0.94709
2261.23733	0.94711
2259.18353	0.94741
2257.12973	0.94791
2255.07592	0.94821
2253.02212	0.94829
2250.96832	0.94825
2248.91451	0.94868
2246.86071	0.94896
2244.80691	0.94824
2242.75310	0.94744
2240.69930	0.94714
2238.64550	0.94659
2236.59169	0.94625
2234.53789	0.94695
2232.48409	0.94747
2230.43029	0.94716
2228.37648	0.94685
2226.32268	0.94744
2224.26888	0.94922
2222.21507	0.95059
2220.16127	0.94987
2218.10747	0.94860
2216.05366	0.94828
2213.99986	0.94807
2211.94606	0.94831
2209.89225	0.94912
2207.83845	0.94897
2205.78465	0.94734
2203.73084	0.94590
2201.67704	0.94639
2199.62324	0.94721
2197.56943	0.94656
2195.51563	0.94570
2193.46183	0.94509
2191.40802	0.94415
2189.35422	0.94495
2187.30042	0.94707
2185.24661	0.94719
2183.19281	0.94687
2181.13901	0.94805
2179.08520	0.94875
2177.03140	0.94818
2174.97760	0.94732
2172.92380	0.94746
2170.86999	0.94835
2168.81619	0.94877
2166.76239	0.94946
2164.70858	0.94992
2162.65478	0.94918
2160.60098	0.94862
2158.54717	0.94916
2156.49337	0.95085
2154.43957	0.95343
2152.38576	0.95565
2150.33196	0.95507
2148.27816	0.95299
2146.22435	0.95171
2144.17055	0.94937
2142.11675	0.94800
2140.06294	0.95007
2138.00914	0.95130
2135.95534	0.95071
2133.90153	0.95142
2131.84773	0.95156
2129.79393	0.95034
2127.74012	0.95008
2125.68632	0.95028
2123.63252	0.94974
2121.57871	0.94826
2119.52491	0.94717
2117.47111	0.94813
2115.41731	0.94933
2113.36350	0.94888
2111.30970	0.94851
2109.25590	0.94943
2107.20209	0.95064
2105.14829	0.95111
2103.09449	0.95004
2101.04068	0.94854
2098.98688	0.94830
2096.93308	0.94867
2094.87927	0.94909
2092.82547	0.95027
2090.77167	0.95122
2088.71786	0.95080
2086.66406	0.95016
2084.61026	0.95002
2082.55645	0.95029
2080.50265	0.95035
2078.44885	0.94944
2076.39504	0.94876
2074.34124	0.94978
2072.28744	0.95182
2070.23363	0.95312
2068.17983	0.95280
2066.12603	0.95124
2064.07223	0.95027
2062.01842	0.95098
2059.96462	0.95203
2057.91082	0.95232
2055.85701	0.95129
2053.80321	0.94971
2051.74941	0.94981
2049.69560	0.95129
2047.64180	0.95220
2045.58800	0.95206
2043.53419	0.95210
2041.48039	0.95232
2039.42659	0.95170
2037.37278	0.95090
2035.31898	0.94991
2033.26518	0.94930
2031.21137	0.94981
2029.15757	0.95058
2027.10377	0.95126
2025.04996	0.95066
2022.99616	0.94981
2020.94236	0.95106
2018.88855	0.95281
2016.83475	0.95400
2014.78095	0.95430
2012.72714	0.95235
2010.67334	0.95055
2008.61954	0.95183
2006.56574	0.95392
2004.51193	0.95465
2002.45813	0.95533
2000.40433	0.95710
1998.35052	0.95839
1996.29672	0.95711
1994.24292	0.95494
1992.18911	0.95319
1990.13531	0.95165
1988.08151	0.95142
1986.02770	0.95199
1983.97390	0.95196
1981.92010	0.95128
1979.86629	0.95270
1977.81249	0.95694
1975.75869	0.95828
1973.70488	0.95448
1971.65108	0.95018
1969.59728	0.94928
1967.54347	0.95179
1965.48967	0.95479
1963.43587	0.95519
1961.38206	0.95381
1959.32826	0.95331
1957.27446	0.95266
1955.22066	0.95050
1953.16685	0.94874
1951.11305	0.94887
1949.05925	0.94951
1947.00544	0.94832
1944.95164	0.94634
1942.89784	0.94682
1940.84403	0.94864
1938.79023	0.94870
1936.73643	0.94820
1934.68262	0.94900
1932.62882	0.95038
1930.57502	0.95093
1928.52121	0.95098
1926.46741	0.95117
1924.41361	0.95136
1922.35980	0.95102
1920.30600	0.95024
1918.25220	0.95082
1916.19839	0.95259
1914.14459	0.95323
1912.09079	0.95278
1910.03698	0.95259
1907.98318	0.95337
1905.92938	0.95412
1903.87557	0.95386
1901.82177	0.95325
1899.76797	0.95247
1897.71417	0.95110
1895.66036	0.94999
1893.60656	0.95019
1891.55276	0.95157
1889.49895	0.95239
1887.44515	0.95101
1885.39135	0.94941
1883.33754	0.94908
1881.28374	0.94904
1879.22994	0.94863
1877.17613	0.94841
1875.12233	0.94866
1873.06853	0.94879
1871.01472	0.94900
1868.96092	0.94945
1866.90712	0.94937
1864.85331	0.94939
1862.79951	0.94987
1860.74571	0.95015
1858.69190	0.94992
1856.63810	0.94973
1854.58430	0.95028
1852.53049	0.95130
1850.47669	0.95196
1848.42289	0.95222
1846.36908	0.95233
1844.31528	0.95269
1842.26148	0.95348
1840.20768	0.95371
1838.15387	0.95333
1836.10007	0.95306
1834.04627	0.95292
1831.99246	0.95260
1829.93866	0.95221
1827.88486	0.95182
1825.83105	0.95143
1823.77725	0.95125
1821.72345	0.95129
1819.66964	0.95108
1817.61584	0.95064
1815.56204	0.95039
1813.50823	0.95034
1811.45443	0.95022
1809.40063	0.94972
1807.34682	0.94894
1805.29302	0.94820
1803.23922	0.94777
1801.18541	0.94771
1799.13161	0.94796
1797.07781	0.94815
1795.02400	0.94848
1792.97020	0.94933
1790.91640	0.95030
1788.86260	0.95085
1786.80879	0.95121
1784.75499	0.95141
1782.70119	0.95137
1780.64738	0.95136
1778.59358	0.95117
1776.53978	0.95093
1774.48597	0.95097
1772.43217	0.95104
1770.37837	0.95097
1768.32456	0.95072
1766.27076	0.94999
1764.21696	0.94912
1762.16315	0.94804
1760.10935	0.94626
1758.05555	0.94375
1756.00174	0.94031
1753.94794	0.93676
1751.89414	0.93303
1749.84033	0.92818
1747.78653	0.92328
1745.73273	0.91983
1743.67892	0.91794
1741.62512	0.91770
1739.57132	0.91908
1737.51751	0.92080
1735.46371	0.92291
1733.40991	0.92658
1731.35611	0.92956
1729.30230	0.93119
1727.24850	0.93259
1725.19470	0.93420
1723.14089	0.93582
1721.08709	0.93693
1719.03329	0.93805
1716.97948	0.93960
1714.92568	0.94021
1712.87188	0.93992
1710.81807	0.93968
1708.76427	0.93962
1706.71047	0.93933
1704.65666	0.93882
1702.60286	0.93846
1700.54906	0.93781
1698.49525	0.93674
1696.44145	0.93571
1694.38765	0.93484
1692.33384	0.93400
1690.28004	0.93288
1688.22624	0.93183
1686.17243	0.93083
1684.11863	0.92868
1682.06483	0.92647
1680.01103	0.92532
1677.95722	0.92427
1675.90342	0.92256
1673.84962	0.92032
1671.79581	0.91874
1669.74201	0.91739
1667.68821	0.91582
1665.63440	0.91451
1663.58060	0.91330
1661.52680	0.91230
1659.47299	0.91182
1657.41919	0.91140
1655.36539	0.91086
1653.31158	0.91014
1651.25778	0.90977
1649.20398	0.91020
1647.15017	0.91022
1645.09637	0.90906
1643.04257	0.90842
1640.98876	0.90831
1638.93496	0.90769
1636.88116	0.90638
1634.82735	0.90526
1632.77355	0.90474
1630.71975	0.90413
1628.66594	0.90340
1626.61214	0.90278
1624.55834	0.90209
1622.50454	0.90152
1620.45073	0.90144
1618.39693	0.90150
1616.34313	0.90126
1614.28932	0.90090
1612.23552	0.90053
1610.18172	0.89940
1608.12791	0.89597
1606.07411	0.88925
1604.02031	0.88078
1601.96650	0.87456
1599.91270	0.87470
1597.85890	0.88075
1595.80509	0.88876
1593.75129	0.89503
1591.69749	0.89845
1589.64368	0.89961
1587.58988	0.89858
1585.53608	0.89520
1583.48227	0.89097
1581.42847	0.88839
1579.37467	0.88766
1577.32086	0.88789
1575.26706	0.89026
1573.21326	0.89406
1571.15945	0.89799
1569.10565	0.90252
1567.05185	0.90629
1564.99805	0.90905
1562.94424	0.91117
1560.89044	0.91243
1558.83664	0.91285
1556.78283	0.91270
1554.72903	0.91248
1552.67523	0.91162
1550.62142	0.90983
1548.56762	0.90770
1546.51382	0.90548
1544.46001	0.90219
1542.40621	0.89772
1540.35241	0.89371
1538.29860	0.89371
1536.24480	0.89664
1534.19100	0.90157
1532.13719	0.90765
1530.08339	0.91191
1528.02959	0.91501
1525.97578	0.91745
1523.92198	0.91895
1521.86818	0.91981
1519.81437	0.92010
1517.76057	0.92032
1515.70677	0.92066
1513.65297	0.92079
1511.59916	0.92097
1509.54536	0.92139
1507.49156	0.92153
1505.43775	0.92088
1503.38395	0.91929
1501.33015	0.91595
1499.27634	0.90732
1497.22254	0.88376
1495.16874	0.84846
1493.11493	0.82648
1491.06113	0.82907
1489.00733	0.85463
1486.95352	0.87778
1484.89972	0.88817
1482.84592	0.89256
1480.79211	0.89392
1478.73831	0.89348
1476.68451	0.89208
1474.63070	0.88982
1472.57690	0.88636
1470.52310	0.88314
1468.46929	0.88114
1466.41549	0.87994
1464.36169	0.87982
1462.30788	0.88006
1460.25408	0.87893
1458.20028	0.86945
1456.14648	0.83914
1454.09267	0.81068
1452.03887	0.79870
1449.98507	0.80252
1447.93126	0.81665
1445.87746	0.83044
1443.82366	0.84023
1441.76985	0.84805
1439.71605	0.85423
1437.66225	0.85950
1435.60844	0.86473
1433.55464	0.86897
1431.50084	0.87236
1429.44703	0.87509
1427.39323	0.87676
1425.33943	0.87735
1423.28562	0.87701
1421.23182	0.87640
1419.17802	0.87611
1417.12421	0.87659
1415.07041	0.87778
1413.01661	0.87969
1410.96280	0.88254
1408.90900	0.88589
1406.85520	0.88918
1404.80139	0.89231
1402.74759	0.89491
1400.69379	0.89684
1398.63999	0.89842
1396.58618	0.89996
1394.53238	0.90141
1392.47858	0.90241
1390.42477	0.90283
1388.37097	0.90263
1386.31717	0.90181
1384.26336	0.90070
1382.20956	0.89927
1380.15576	0.89775
1378.10195	0.89689
1376.04815	0.89666
1373.99435	0.89674
1371.94054	0.89725
1369.88674	0.89817
1367.83294	0.89923
1365.77913	0.90022
1363.72533	0.90132
1361.67153	0.90273
1359.61772	0.90421
1357.56392	0.90587
1355.51012	0.90744
1353.45631	0.90832
1351.40251	0.90881
1349.34871	0.90940
1347.29491	0.91005
1345.24110	0.91108
1343.18730	0.91254
1341.13350	0.91391
1339.07969	0.91486
1337.02589	0.91538
1334.97209	0.91540
1332.91828	0.91479
1330.86448	0.91369
1328.81068	0.91267
1326.75687	0.91197
1324.70307	0.91146
1322.64927	0.91130
1320.59546	0.91181
1318.54166	0.91271
1316.48786	0.91345
1314.43405	0.91398
1312.38025	0.91447
1310.32645	0.91492
1308.27264	0.91546
1306.21884	0.91617
1304.16504	0.91706
1302.11123	0.91818
1300.05743	0.91921
1298.00363	0.91982
1295.94982	0.92013
1293.89602	0.92048
1291.84222	0.92091
1289.78842	0.92110
1287.73461	0.92095
1285.68081	0.92075
1283.62701	0.92043
1281.57320	0.91959
1279.51940	0.91806
1277.46560	0.91626
1275.41179	0.91523
1273.35799	0.91523
1271.30419	0.91561
1269.25038	0.91629
1267.19658	0.91752
1265.14278	0.91883
1263.08897	0.91969
1261.03517	0.91999
1258.98137	0.92006
1256.92756	0.92017
1254.87376	0.92032
1252.81996	0.92042
1250.76615	0.92030
1248.71235	0.91985
1246.65855	0.91921
1244.60474	0.91904
1242.55094	0.91949
1240.49714	0.91975
1238.44334	0.91953
1236.38953	0.91938
1234.33573	0.91943
1232.28193	0.91927
1230.22812	0.91900
1228.17432	0.91886
1226.12052	0.91883
1224.06671	0.91855
1222.01291	0.91795
1219.95911	0.91751
1217.90530	0.91728
1215.85150	0.91699
1213.79770	0.91645
1211.74389	0.91548
1209.69009	0.91416
1207.63629	0.91267
1205.58248	0.91108
1203.52868	0.90927
1201.47488	0.90699
1199.42107	0.90456
1197.36727	0.90252
1195.31347	0.90072
1193.25966	0.89902
1191.20586	0.89728
1189.15206	0.89518
1187.09825	0.89236
1185.04445	0.88875
1182.99065	0.88504
1180.93685	0.88213
1178.88304	0.88054
1176.82924	0.87999
1174.77544	0.87960
1172.72163	0.87891
1170.66783	0.87769
1168.61403	0.87598
1166.56022	0.87447
1164.50642	0.87350
1162.45262	0.87247
1160.39881	0.87049
1158.34501	0.86742
1156.29121	0.86415
1154.23740	0.86201
1152.18360	0.86182
1150.12980	0.86283
1148.07599	0.86376
1146.02219	0.86431
1143.96839	0.86476
1141.91458	0.86524
1139.86078	0.86561
1137.80698	0.86554
1135.75317	0.86467
1133.69937	0.86305
1131.64557	0.86095
1129.59176	0.85836
1127.53796	0.85542
1125.48416	0.85228
1123.43036	0.84854
1121.37655	0.84395
1119.32275	0.83892
1117.26895	0.83452
1115.21514	0.83133
1113.16134	0.82893
1111.10754	0.82703
1109.05373	0.82537
1106.99993	0.82366
1104.94613	0.82210
1102.89232	0.82042
1100.83852	0.81837
1098.78472	0.81627
1096.73091	0.81410
1094.67711	0.81175
1092.62331	0.80950
1090.56950	0.80785
1088.51570	0.80716
1086.46190	0.80698
1084.40809	0.80643
1082.35429	0.80527
1080.30049	0.80367
1078.24668	0.80156
1076.19288	0.79883
1074.13908	0.79563
1072.08528	0.79235
1070.03147	0.78975
1067.97767	0.78823
1065.92387	0.78735
1063.87006	0.78659
1061.81626	0.78568
1059.76246	0.78459
1057.70865	0.78351
1055.65485	0.78230
1053.60105	0.78008
1051.54724	0.77675
1049.49344	0.77344
1047.43964	0.77025
1045.38583	0.76673
1043.33203	0.76327
1041.27823	0.76001
1039.22442	0.75612
1037.17062	0.75041
1035.11682	0.74250
1033.06301	0.73308
1031.00921	0.72354
1028.95541	0.71655
1026.90160	0.71459
1024.84780	0.71720
1022.79400	0.72176
1020.74019	0.72615
1018.68639	0.72988
1016.63259	0.73303
1014.57879	0.73546
1012.52498	0.73754
1010.47118	0.73947
1008.41738	0.74088
1006.36357	0.74179
1004.30977	0.74307
1002.25597	0.74582
1000.20216	0.75014
998.14836	0.75526
996.09456	0.76050
994.04075	0.76531
991.98695	0.76968
989.93315	0.77382
987.87934	0.77780
985.82554	0.78224
983.77174	0.78745
981.71793	0.79269
979.66413	0.79764
977.61033	0.80311
975.55652	0.80925
973.50272	0.81507
971.44892	0.81976
969.39511	0.82304
967.34131	0.82571
965.28751	0.82907
963.23371	0.83340
961.17990	0.83824
959.12610	0.84320
957.07230	0.84793
955.01849	0.85202
952.96469	0.85525
950.91089	0.85791
948.85708	0.86019
946.80328	0.86188
944.74948	0.86322
942.69567	0.86473
940.64187	0.86653
938.58807	0.86852
936.53426	0.87047
934.48046	0.87229
932.42666	0.87450
930.37285	0.87681
928.31905	0.87834
926.26525	0.87935
924.21144	0.87993
922.15764	0.87977
920.10384	0.87893
918.05003	0.87748
915.99623	0.87564
913.94243	0.87344
911.88862	0.87052
909.83482	0.86730
907.78102	0.86520
905.72722	0.86572
903.67341	0.86973
901.61961	0.87640
899.56581	0.88333
897.51200	0.88878
895.45820	0.89276
893.40440	0.89588
891.35059	0.89856
889.29679	0.90053
887.24299	0.90149
885.18918	0.90144
883.13538	0.90000
881.08158	0.89713
879.02777	0.89360
876.97397	0.89015
874.92017	0.88780
872.86636	0.88765
870.81256	0.88986
868.75876	0.89392
866.70495	0.89872
864.65115	0.90253
862.59735	0.90484
860.54354	0.90650
858.48974	0.90800
856.43594	0.90938
854.38213	0.91036
852.32833	0.91054
850.27453	0.91017
848.22073	0.90977
846.16692	0.90899
844.11312	0.90768
842.05932	0.90662
840.00551	0.90614
837.95171	0.90610
835.89791	0.90650
833.84410	0.90751
831.79030	0.90872
829.73650	0.90939
827.68269	0.90968
825.62889	0.91007
823.57509	0.91050
821.52128	0.91068
819.46748	0.91055
817.41368	0.91038
815.35987	0.91052
813.30607	0.91102
811.25227	0.91118
809.19846	0.91027
807.14466	0.90848
805.09086	0.90681
803.03705	0.90561
800.98325	0.90430
798.92945	0.90263
796.87565	0.90135
794.82184	0.90074
792.76804	0.89993
790.71424	0.89828
788.66043	0.89565
786.60663	0.89235
784.55283	0.88915
782.49902	0.88597
780.44522	0.88165
778.39142	0.87619
776.33761	0.87010
774.28381	0.86263
772.23001	0.85291
770.17620	0.84104
768.12240	0.82781
766.06860	0.81400
764.01479	0.80019
761.96099	0.78651
759.90719	0.77387
757.85338	0.76442
755.79958	0.75916
753.74578	0.75757
751.69197	0.75882
749.63817	0.76167
747.58437	0.76607
745.53056	0.77453
743.47676	0.78857
741.42296	0.80549
739.36916	0.82179
737.31535	0.83594
735.26155	0.84755
733.20775	0.85710
731.15394	0.86482
729.10014	0.87056
727.04634	0.87423
724.99253	0.87589
722.93873	0.87680
720.88493	0.87830
718.83112	0.88041
716.77732	0.88180
714.72352	0.88023
712.66971	0.87352
710.61591	0.86006
708.56211	0.83615
706.50830	0.79531
704.45450	0.73485
702.40070	0.65924
700.34689	0.57695
698.29309	0.50396
696.23929	0.47158
694.18548	0.50570
692.13168	0.58727
690.07788	0.66935
688.02408	0.72628
685.97027	0.75994
683.91647	0.78010
681.86267	0.79364
679.80886	0.80353
677.75506	0.81091
675.70126	0.81664
673.64745	0.82111
671.59365	0.82402
669.53985	0.82610
667.48604	0.82955
665.43224	0.83343
663.37844	0.83628
661.32463	0.83826
659.27083	0.83936
657.21703	0.84050
655.16322	0.84180
653.10942	0.84282
651.05562	0.84410
649.00181	0.84545
646.94801	0.84700
644.89421	0.84927
642.84040	0.85024
640.78660	0.84950
638.73280	0.84890
636.67899	0.84831
634.62519	0.84738
632.57139	0.84659
630.51759	0.84600
628.46378	0.84476
626.40998	0.84226
624.35618	0.83995
622.30237	0.83902
620.24857	0.83794
618.19477	0.83620
616.14096	0.83506
614.08716	0.83404
612.03336	0.83282
609.97955	0.83189
607.92575	0.83061
605.87195	0.82784
603.81814	0.82430
601.76434	0.82158
599.71054	0.81921
597.65673	0.81766
595.60293	0.81782
593.54913	0.81840
591.49532	0.81844
589.44152	0.81827
587.38772	0.81813
585.33391	0.81722
583.28011	0.81527
581.22631	0.81307
579.17250	0.81093
577.11870	0.80798
575.06490	0.80312
573.01110	0.79775
570.95729	0.79342
568.90349	0.78913
566.84969	0.78476
564.79588	0.78034
562.74208	0.77525
560.68828	0.77054
558.63447	0.76604
556.58067	0.76173
554.52687	0.75910
552.47306	0.75678
550.41926	0.75190
548.36546	0.74402
546.31165	0.73478
544.25785	0.72530
542.20405	0.71558
540.15024	0.70811
538.09644	0.70569
536.04264	0.70650
533.98883	0.71031
531.93503	0.71889
529.88123	0.72949
527.82742	0.73973
525.77362	0.75008
523.71982	0.75862
521.66602	0.76392
519.61221	0.76820
517.55841	0.77312
515.50461	0.77817
513.45080	0.78262
511.39700	0.78636
509.34320	0.78914
507.28939	0.79057
505.23559	0.79247
503.18179	0.79706
501.12798	0.80148
499.07418	0.80127
497.02038	0.79881
494.96657	0.79777
492.91277	0.79664
490.85897	0.79382
488.80516	0.78971
486.75136	0.78372
484.69756	0.77742
482.64375	0.77153
480.58995	0.76373
478.53615	0.75530
476.48234	0.74894
474.42854	0.74430
472.37474	0.73922
470.32093	0.73436
468.26713	0.73235
466.21333	0.73342
464.15953	0.73647
462.10572	0.74033
460.05192	0.74526
457.99812	0.75002
455.94431	0.75070
453.89051	0.75115
451.83671	0.75701
449.78290	0.76420
447.72910	0.76657
445.67530	0.76619
443.62149	0.76754
441.56769	0.76922
439.51389	0.76832
437.46008	0.76610
435.40628	0.76426
433.35248	0.76291
431.29867	0.76118
429.24487	0.76048
427.19107	0.76152
425.13726	0.76023
423.08346	0.75820
421.02966	0.76072
418.97585	0.76461
416.92205	0.76662
414.86825	0.76940
412.81445	0.76943
410.76064	0.76932
408.70684	0.77707
406.65304	0.78451
404.59923	0.78284
402.54543	0.77877
400.49163	0.77508
398.43782	0.76705
