3996.70104	0.95363
3994.64724	0.95357
3992.59344	0.95402
3990.53964	0.95489
3988.48583	0.95552
3986.43203	0.95547
3984.37823	0.95534
3982.32442	0.95542
3980.27062	0.95533
3978.21682	0.95502
3976.16301	0.95481
3974.10921	0.95483
3972.05541	0.95488
3970.00160	0.95473
3967.94780	0.95450
3965.89400	0.95432
3963.84019	0.95430
3961.78639	0.95458
3959.73259	0.95504
3957.67878	0.95560
3955.62498	0.95599
3953.57118	0.95595
3951.51737	0.95570
3949.46357	0.95537
3947.40977	0.95509
3945.35596	0.95488
3943.30216	0.95479
3941.24836	0.95502
3939.19455	0.95518
3937.14075	0.95470
3935.08695	0.95390
3933.03315	0.95347
3930.97934	0.95361
3928.92554	0.95436
3926.87174	0.95540
3924.81793	0.95591
3922.76413	0.95572
3920.71033	0.95546
3918.65652	0.95520
3916.60272	0.95500
3914.54892	0.95502
3912.49511	0.95518
3910.44131	0.95542
3908.38751	0.95535
3906.33370	0.95492
3904.27990	0.95470
3902.22610	0.95509
3900.17229	0.95606
3898.11849	0.95686
3896.06469	0.95682
3894.01088	0.95598
3891.95708	0.95491
3889.90328	0.95480
3887.84947	0.95545
3885.79567	0.95585
3883.74187	0.95579
3881.68807	0.95577
3879.63426	0.95589
3877.58046	0.95580
3875.52666	0.95534
3873.47285	0.95497
3871.41905	0.95502
3869.36525	0.95480
3867.31144	0.95465
3865.25764	0.95514
3863.20384	0.95555
3861.15003	0.95538
3859.09623	0.95515
3857.04243	0.95490
3854.98862	0.95425
3852.93482	0.95416
3850.88102	0.95512
3848.82721	0.95553
3846.77341	0.95542
3844.71961	0.95524
3842.66580	0.95520
3840.61200	0.95505
3838.55820	0.95525
3836.50439	0.95588
3834.45059	0.95557
3832.39679	0.95502
3830.34298	0.95547
3828.28918	0.95635
3826.23538	0.95673
3824.18158	0.95679
3822.12777	0.95677
3820.07397	0.95636
3818.02017	0.95612
3815.96636	0.95599
3813.91256	0.95548
3811.85876	0.95524
3809.80495	0.95526
3807.75115	0.95493
3805.69735	0.95481
3803.64354	0.95561
3801.58974	0.95664
3799.53594	0.95643
3797.48213	0.95558
3795.42833	0.95548
3793.37453	0.95599
3791.32072	0.95646
3789.26692	0.95666
3787.21312	0.95655
3785.15931	0.95635
3783.10551	0.95626
3781.05171	0.95624
3778.99790	0.95651
3776.94410	0.95710
3774.89030	0.95758
3772.83650	0.95752
3770.78269	0.95705
3768.72889	0.95657
3766.67509	0.95584
3764.62128	0.95568
3762.56748	0.95642
3760.51368	0.95691
3758.45987	0.95707
3756.40607	0.95703
3754.35227	0.95678
3752.29846	0.95708
3750.24466	0.95783
3748.19086	0.95814
3746.13705	0.95833
3744.08325	0.95853
3742.02945	0.95895
3739.97564	0.95925
3737.92184	0.95912
3735.86804	0.95823
3733.81423	0.95687
3731.76043	0.95668
3729.70663	0.95782
3727.65282	0.95900
3725.59902	0.95880
3723.54522	0.95762
3721.49141	0.95677
3719.43761	0.95631
3717.38381	0.95616
3715.33001	0.95597
3713.27620	0.95569
3711.22240	0.95558
3709.16860	0.95460
3707.11479	0.95252
3705.06099	0.95045
3703.00719	0.94938
3700.95338	0.94936
3698.89958	0.94865
3696.84578	0.94760
3694.79197	0.94771
3692.73817	0.94839
3690.68437	0.94879
3688.63056	0.94926
3686.57676	0.94976
3684.52296	0.95007
3682.46915	0.95038
3680.41535	0.95060
3678.36155	0.95032
3676.30774	0.94934
3674.25394	0.94799
3672.20014	0.94723
3670.14633	0.94675
3668.09253	0.94658
3666.03873	0.94713
3663.98492	0.94770
3661.93112	0.94771
3659.87732	0.94752
3657.82352	0.94709
3655.76971	0.94605
3653.71591	0.94524
3651.66211	0.94479
3649.60830	0.94389
3647.55450	0.94320
3645.50070	0.94326
3643.44689	0.94329
3641.39309	0.94288
3639.33929	0.94209
3637.28548	0.94140
3635.23168	0.94091
3633.17788	0.94055
3631.12407	0.94024
3629.07027	0.93978
3627.01647	0.93874
3624.96266	0.93701
3622.90886	0.93551
3620.85506	0.93526
3618.80125	0.93610
3616.74745	0.93654
3614.69365	0.93617
3612.63984	0.93614
3610.58604	0.93671
3608.53224	0.93665
3606.47844	0.93614
3604.42463	0.93622
3602.37083	0.93648
3600.31703	0.93668
3598.26322	0.93674
3596.20942	0.93661
3594.15562	0.93678
3592.10181	0.93668
3590.04801	0.93600
3587.99421	0.93582
3585.94040	0.93649
3583.88660	0.93683
3581.83280	0.93661
3579.77899	0.93595
3577.72519	0.93509
3575.67139	0.93464
3573.61758	0.93494
3571.56378	0.93553
3569.50998	0.93565
3567.45617	0.93521
3565.40237	0.93490
3563.34857	0.93459
3561.29476	0.93399
3559.24096	0.93344
3557.18716	0.93286
3555.13335	0.93231
3553.07955	0.93205
3551.02575	0.93177
3548.97195	0.93126
3546.91814	0.93076
3544.86434	0.93072
3542.81054	0.93091
3540.75673	0.93067
3538.70293	0.93020
3536.64913	0.93012
3534.59532	0.93047
3532.54152	0.93067
3530.48772	0.93056
3528.43391	0.93032
3526.38011	0.92982
3524.32631	0.92956
3522.27250	0.93002
3520.21870	0.93014
3518.16490	0.92975
3516.11109	0.92978
3514.05729	0.93002
3512.00349	0.92983
3509.94968	0.92944
3507.89588	0.92928
3505.84208	0.92933
3503.78827	0.92948
3501.73447	0.92934
3499.68067	0.92911
3497.62687	0.92924
3495.57306	0.92944
3493.51926	0.92944
3491.46546	0.92941
3489.41165	0.92919
3487.35785	0.92890
3485.30405	0.92888
3483.25024	0.92845
3481.19644	0.92770
3479.14264	0.92787
3477.08883	0.92845
3475.03503	0.92827
3472.98123	0.92780
3470.92742	0.92782
3468.87362	0.92806
3466.81982	0.92837
3464.76601	0.92830
3462.71221	0.92754
3460.65841	0.92687
3458.60460	0.92679
3456.55080	0.92684
3454.49700	0.92662
3452.44319	0.92631
3450.38939	0.92606
3448.33559	0.92591
3446.28178	0.92594
3444.22798	0.92577
3442.17418	0.92492
3440.12038	0.92396
3438.06657	0.92387
3436.01277	0.92454
3433.95897	0.92491
3431.90516	0.92460
3429.85136	0.92431
3427.79756	0.92464
3425.74375	0.92515
3423.68995	0.92463
3421.63615	0.92354
3419.58234	0.92322
3417.52854	0.92311
3415.47474	0.92270
3413.42093	0.92253
3411.36713	0.92256
3409.31333	0.92272
3407.25952	0.92275
3405.20572	0.92250
3403.15192	0.92233
3401.09811	0.92209
3399.04431	0.92191
3396.99051	0.92185
3394.93670	0.92159
3392.88290	0.92152
3390.82910	0.92213
3388.77529	0.92286
3386.72149	0.92312
3384.66769	0.92316
3382.61389	0.92311
3380.56008	0.92314
3378.50628	0.92360
3376.45248	0.92415
3374.39867	0.92449
3372.34487	0.92460
3370.29107	0.92428
3368.23726	0.92403
3366.18346	0.92424
3364.12966	0.92432
3362.07585	0.92403
3360.02205	0.92383
3357.96825	0.92402
3355.91444	0.92428
3353.86064	0.92453
3351.80684	0.92495
3349.75303	0.92524
3347.69923	0.92549
3345.64543	0.92607
3343.59162	0.92635
3341.53782	0.92589
3339.48402	0.92548
3337.43021	0.92554
3335.37641	0.92585
3333.32261	0.92627
3331.26881	0.92636
3329.21500	0.92600
3327.16120	0.92596
3325.10740	0.92640
3323.05359	0.92681
3320.99979	0.92707
3318.94599	0.92735
3316.89218	0.92795
3314.83838	0.92844
3312.78458	0.92793
3310.73077	0.92722
3308.67697	0.92744
3306.62317	0.92802
3304.56936	0.92809
3302.51556	0.92802
3300.46176	0.92868
3298.40795	0.92954
3296.35415	0.92953
3294.30035	0.92930
3292.24654	0.92949
3290.19274	0.92957
3288.13894	0.92930
3286.08513	0.92884
3284.03133	0.92852
3281.97753	0.92862
3279.92372	0.92883
3277.86992	0.92901
3275.81612	0.92921
3273.76232	0.92948
3271.70851	0.92981
3269.65471	0.92994
3267.60091	0.92998
3265.54710	0.92991
3263.49330	0.92964
3261.43950	0.92967
3259.38569	0.93031
3257.33189	0.93106
3255.27809	0.93145
3253.22428	0.93161
3251.17048	0.93175
3249.11668	0.93199
3247.06287	0.93191
3245.00907	0.93150
3242.95527	0.93152
3240.90146	0.93184
3238.84766	0.93194
3236.79386	0.93202
3234.74005	0.93233
3232.68625	0.93246
3230.63245	0.93253
3228.57864	0.93316
3226.52484	0.93389
3224.47104	0.93417
3222.41724	0.93410
3220.36343	0.93380
3218.30963	0.93362
3216.25583	0.93368
3214.20202	0.93358
3212.14822	0.93369
3210.09442	0.93436
3208.04061	0.93498
3205.98681	0.93524
3203.93301	0.93564
3201.87920	0.93600
3199.82540	0.93594
3197.77160	0.93570
3195.71779	0.93552
3193.66399	0.93551
3191.61019	0.93571
3189.55638	0.93612
3187.50258	0.93652
3185.44878	0.93670
3183.39497	0.93675
3181.34117	0.93660
3179.28737	0.93647
3177.23356	0.93660
3175.17976	0.93679
3173.12596	0.93699
3171.07215	0.93717
3169.01835	0.93727
3166.96455	0.93742
3164.91075	0.93781
3162.85694	0.93837
3160.80314	0.93876
3158.74934	0.93877
3156.69553	0.93858
3154.64173	0.93836
3152.58793	0.93831
3150.53412	0.93862
3148.48032	0.93911
3146.42652	0.93941
3144.37271	0.93923
3142.31891	0.93903
3140.26511	0.93941
3138.21130	0.93993
3136.15750	0.94012
3134.10370	0.94027
3132.04989	0.94065
3129.99609	0.94116
3127.94229	0.94159
3125.88848	0.94168
3123.83468	0.94160
3121.78088	0.94161
3119.72707	0.94126
3117.67327	0.94082
3115.61947	0.94107
3113.56566	0.94138
3111.51186	0.94133
3109.45806	0.94128
3107.40426	0.94116
3105.35045	0.94115
3103.29665	0.94143
3101.24285	0.94181
3099.18904	0.94197
3097.13524	0.94198
3095.08144	0.94216
3093.02763	0.94210
3090.97383	0.94144
3088.92003	0.94040
3086.86622	0.93926
3084.81242	0.93813
3082.75862	0.93735
3080.70481	0.93738
3078.65101	0.93824
3076.59721	0.93933
3074.54340	0.93982
3072.48960	0.93982
3070.43580	0.93973
3068.38199	0.93935
3066.32819	0.93852
3064.27439	0.93740
3062.22058	0.93620
3060.16678	0.93544
3058.11298	0.93546
3056.05918	0.93616
3054.00537	0.93728
3051.95157	0.93849
3049.89777	0.93963
3047.84396	0.94068
3045.79016	0.94148
3043.73636	0.94185
3041.68255	0.94181
3039.62875	0.94145
3037.57495	0.94080
3035.52114	0.93965
3033.46734	0.93766
3031.41354	0.93464
3029.35973	0.93085
3027.30593	0.92721
3025.25213	0.92504
3023.19832	0.92528
3021.14452	0.92787
3019.09072	0.93160
3017.03691	0.93475
3014.98311	0.93686
3012.92931	0.93868
3010.87550	0.94018
3008.82170	0.94079
3006.76790	0.94064
3004.71409	0.94050
3002.66029	0.94062
3000.60649	0.94088
2998.55269	0.94147
2996.49888	0.94216
2994.44508	0.94288
2992.39128	0.94379
2990.33747	0.94434
2988.28367	0.94451
2986.22987	0.94493
2984.17606	0.94543
2982.12226	0.94553
2980.06846	0.94538
2978.01465	0.94523
2975.96085	0.94525
2973.90705	0.94527
2971.85324	0.94480
2969.79944	0.94420
2967.74564	0.94419
2965.69183	0.94440
2963.63803	0.94405
2961.58423	0.94350
2959.53042	0.94351
2957.47662	0.94366
2955.42282	0.94320
2953.36901	0.94232
2951.31521	0.94181
2949.26141	0.94163
2947.20761	0.94117
2945.15380	0.94036
2943.10000	0.93919
2941.04620	0.93754
2938.99239	0.93565
2936.93859	0.93374
2934.88479	0.93171
2932.83098	0.92933
2930.77718	0.92696
2928.72338	0.92494
2926.66957	0.92288
2924.61577	0.92091
2922.56197	0.91963
2920.50816	0.91916
2918.45436	0.91927
2916.40056	0.91981
2914.34675	0.92087
2912.29295	0.92226
2910.23915	0.92378
2908.18534	0.92538
2906.13154	0.92682
2904.07774	0.92807
2902.02393	0.92944
2899.97013	0.93099
2897.91633	0.93230
2895.86252	0.93343
2893.80872	0.93475
2891.75492	0.93580
2889.70112	0.93623
2887.64731	0.93652
2885.59351	0.93714
2883.53971	0.93796
2881.48590	0.93861
2879.43210	0.93899
2877.37830	0.93937
2875.32449	0.93984
2873.27069	0.94027
2871.21689	0.94066
2869.16308	0.94091
2867.10928	0.94116
2865.05548	0.94150
2863.00167	0.94146
2860.94787	0.94090
2858.89407	0.93990
2856.84026	0.93843
2854.78646	0.93704
2852.73266	0.93610
2850.67885	0.93546
2848.62505	0.93535
2846.57125	0.93596
2844.51744	0.93695
2842.46364	0.93808
2840.40984	0.93923
2838.35603	0.94033
2836.30223	0.94142
2834.24843	0.94265
2832.19463	0.94390
2830.14082	0.94477
2828.08702	0.94523
2826.03322	0.94553
2823.97941	0.94584
2821.92561	0.94612
2819.87181	0.94632
2817.81800	0.94655
2815.76420	0.94669
2813.71040	0.94683
2811.65659	0.94703
2809.60279	0.94703
2807.54899	0.94709
2805.49518	0.94722
2803.44138	0.94711
2801.38758	0.94716
2799.33377	0.94763
2797.27997	0.94811
2795.22617	0.94825
2793.17236	0.94807
2791.11856	0.94794
2789.06476	0.94792
2787.01095	0.94779
2784.95715	0.94780
2782.90335	0.94818
2780.84955	0.94858
2778.79574	0.94875
2776.74194	0.94875
2774.68814	0.94881
2772.63433	0.94913
2770.58053	0.94934
2768.52673	0.94924
2766.47292	0.94918
2764.41912	0.94912
2762.36532	0.94892
2760.31151	0.94888
2758.25771	0.94914
2756.20391	0.94935
2754.15010	0.94936
2752.09630	0.94933
2750.04250	0.94927
2747.98869	0.94917
2745.93489	0.94911
2743.88109	0.94929
2741.82728	0.94963
2739.77348	0.94975
2737.71968	0.94974
2735.66587	0.94982
2733.61207	0.95004
2731.55827	0.95038
2729.50446	0.95060
2727.45066	0.95057
2725.39686	0.95037
2723.34306	0.95008
2721.28925	0.95001
2719.23545	0.95009
2717.18165	0.95021
2715.12784	0.95049
2713.07404	0.95067
2711.02024	0.95058
2708.96643	0.95045
2706.91263	0.95027
2704.85883	0.94987
2702.80502	0.94952
2700.75122	0.94948
2698.69742	0.94954
2696.64361	0.94960
2694.58981	0.94984
2692.53601	0.95018
2690.48220	0.95055
2688.42840	0.95102
2686.37460	0.95126
2684.32079	0.95081
2682.26699	0.95016
2680.21319	0.95005
2678.15938	0.95026
2676.10558	0.95035
2674.05178	0.95042
2671.99797	0.95062
2669.94417	0.95093
2667.89037	0.95110
2665.83657	0.95099
2663.78276	0.95095
2661.72896	0.95112
2659.67516	0.95123
2657.62135	0.95126
2655.56755	0.95136
2653.51375	0.95132
2651.45994	0.95124
2649.40614	0.95132
2647.35234	0.95141
2645.29853	0.95156
2643.24473	0.95181
2641.19093	0.95191
2639.13712	0.95161
2637.08332	0.95121
2635.02952	0.95125
2632.97571	0.95156
2630.92191	0.95168
2628.86811	0.95169
2626.81430	0.95174
2624.76050	0.95179
2622.70670	0.95201
2620.65289	0.95226
2618.59909	0.95230
2616.54529	0.95229
2614.49149	0.95209
2612.43768	0.95185
2610.38388	0.95191
2608.33008	0.95208
2606.27627	0.95217
2604.22247	0.95210
2602.16867	0.95190
2600.11486	0.95173
2598.06106	0.95179
2596.00726	0.95213
2593.95345	0.95243
2591.89965	0.95240
2589.84585	0.95239
2587.79204	0.95249
2585.73824	0.95240
2583.68444	0.95226
2581.63063	0.95238
2579.57683	0.95266
2577.52303	0.95304
2575.46922	0.95329
2573.41542	0.95299
2571.36162	0.95262
2569.30781	0.95289
2567.25401	0.95367
2565.20021	0.95421
2563.14640	0.95384
2561.09260	0.95269
2559.03880	0.95179
2556.98500	0.95202
2554.93119	0.95298
2552.87739	0.95360
2550.82359	0.95335
2548.76978	0.95300
2546.71598	0.95312
2544.66218	0.95319
2542.60837	0.95315
2540.55457	0.95324
2538.50077	0.95351
2536.44696	0.95398
2534.39316	0.95427
2532.33936	0.95385
2530.28555	0.95307
2528.23175	0.95312
2526.17795	0.95396
2524.12414	0.95421
2522.07034	0.95382
2520.01654	0.95378
2517.96273	0.95390
2515.90893	0.95367
2513.85513	0.95322
2511.80132	0.95269
2509.74752	0.95257
2507.69372	0.95328
2505.63992	0.95433
2503.58611	0.95489
2501.53231	0.95471
2499.47851	0.95406
2497.42470	0.95347
2495.37090	0.95342
2493.31710	0.95349
2491.26329	0.95335
2489.20949	0.95346
2487.15569	0.95385
2485.10188	0.95444
2483.04808	0.95467
2480.99428	0.95428
2478.94047	0.95447
2476.88667	0.95475
2474.83287	0.95421
2472.77906	0.95386
2470.72526	0.95397
2468.67146	0.95398
2466.61765	0.95400
2464.56385	0.95413
2462.51005	0.95401
2460.45624	0.95387
2458.40244	0.95418
2456.34864	0.95435
2454.29483	0.95421
2452.24103	0.95435
2450.18723	0.95436
2448.13343	0.95413
2446.07962	0.95430
2444.02582	0.95455
2441.97202	0.95446
2439.91821	0.95445
2437.86441	0.95480
2435.81061	0.95468
2433.75680	0.95407
2431.70300	0.95435
2429.64920	0.95505
2427.59539	0.95492
2425.54159	0.95469
2423.48779	0.95491
2421.43398	0.95502
2419.38018	0.95496
2417.32638	0.95468
2415.27257	0.95424
2413.21877	0.95419
2411.16497	0.95452
2409.11116	0.95506
2407.05736	0.95565
2405.00356	0.95566
2402.94975	0.95502
2400.89595	0.95452
2398.84215	0.95431
2396.78834	0.95402
2394.73454	0.95389
2392.68074	0.95445
2390.62694	0.95543
2388.57313	0.95602
2386.51933	0.95597
2384.46553	0.95565
2382.41172	0.95577
2380.35792	0.95659
2378.30412	0.95694
2376.25031	0.95577
2374.19651	0.95398
2372.14271	0.95306
2370.08890	0.95347
2368.03510	0.95460
2365.98130	0.95536
2363.92749	0.95542
2361.87369	0.95542
2359.81989	0.95511
2357.76608	0.95414
2355.71228	0.95358
2353.65848	0.95378
2351.60467	0.95450
2349.55087	0.95508
2347.49707	0.95492
2345.44326	0.95445
2343.38946	0.95452
2341.33566	0.95502
2339.28186	0.95550
2337.22805	0.95533
2335.17425	0.95490
2333.12045	0.95529
2331.06664	0.95579
2329.01284	0.95588
2326.95904	0.95569
2324.90523	0.95482
2322.85143	0.95399
2320.79763	0.95419
2318.74382	0.95468
2316.69002	0.95477
2314.63622	0.95450
2312.58241	0.95402
2310.52861	0.95402
2308.47481	0.95449
2306.42100	0.95449
2304.36720	0.95401
2302.31340	0.95381
2300.25959	0.95426
2298.20579	0.95490
2296.15199	0.95499
2294.09818	0.95444
2292.04438	0.95391
2289.99058	0.95393
2287.93677	0.95410
2285.88297	0.95398
2283.82917	0.95431
2281.77537	0.95560
2279.72156	0.95679
2277.66776	0.95682
2275.61396	0.95628
2273.56015	0.95600
2271.50635	0.95603
2269.45255	0.95647
2267.39874	0.95688
2265.34494	0.95616
2263.29114	0.95532
2261.23733	0.95610
2259.18353	0.95708
2257.12973	0.95689
2255.07592	0.95651
2253.02212	0.95656
2250.96832	0.95663
2248.91451	0.95626
2246.86071	0.95529
2244.80691	0.95467
2242.75310	0.95543
2240.69930	0.95654
2238.64550	0.95639
2236.59169	0.95519
2234.53789	0.95501
2232.48409	0.95674
2230.43029	0.95825
2228.37648	0.95806
2226.32268	0.95708
2224.26888	0.95657
2222.21507	0.95710
2220.16127	0.95778
2218.10747	0.95666
2216.05366	0.95444
2213.99986	0.95379
2211.94606	0.95545
2209.89225	0.95791
2207.83845	0.95925
2205.78465	0.95957
2203.73084	0.96042
2201.67704	0.96130
2199.62324	0.96091
2197.56943	0.96025
2195.51563	0.96041
2193.46183	0.96109
2191.40802	0.96196
2189.35422	0.96202
2187.30042	0.96062
2185.24661	0.95897
2183.19281	0.95813
2181.13901	0.95746
2179.08520	0.95645
2177.03140	0.95608
2174.97760	0.95699
2172.92380	0.95707
2170.86999	0.95541
2168.81619	0.95343
2166.76239	0.95172
2164.70858	0.95170
2162.65478	0.95464
2160.60098	0.95829
2158.54717	0.96109
2156.49337	0.96528
2154.43957	0.96766
2152.38576	0.96567
2150.33196	0.96318
2148.27816	0.96172
2146.22435	0.96080
2144.17055	0.96065
2142.11675	0.96067
2140.06294	0.96044
2138.00914	0.96104
2135.95534	0.96216
2133.90153	0.96188
2131.84773	0.96043
2129.79393	0.95919
2127.74012	0.95899
2125.68632	0.95903
2123.63252	0.95864
2121.57871	0.95873
2119.52491	0.95893
2117.47111	0.95802
2115.41731	0.95631
2113.36350	0.95575
2111.30970	0.95685
2109.25590	0.95790
2107.20209	0.95816
2105.14829	0.95771
2103.09449	0.95760
2101.04068	0.95876
2098.98688	0.95990
2096.93308	0.95964
2094.87927	0.95848
2092.82547	0.95781
2090.77167	0.95778
2088.71786	0.95822
2086.66406	0.95825
2084.61026	0.95713
2082.55645	0.95697
2080.50265	0.95790
2078.44885	0.95759
2076.39504	0.95678
2074.34124	0.95734
2072.28744	0.95898
2070.23363	0.96042
2068.17983	0.96161
2066.12603	0.96242
2064.07223	0.96129
2062.01842	0.95852
2059.96462	0.95660
2057.91082	0.95713
2055.85701	0.95915
2053.80321	0.96021
2051.74941	0.95946
2049.69560	0.95828
2047.64180	0.95757
2045.58800	0.95707
2043.53419	0.95776
2041.48039	0.95949
2039.42659	0.95999
2037.37278	0.95933
2035.31898	0.96024
2033.26518	0.96283
2031.21137	0.96293
2029.15757	0.96089
2027.10377	0.96096
2025.04996	0.96234
2022.99616	0.96187
2020.94236	0.96023
2018.88855	0.95982
2016.83475	0.96047
2014.78095	0.96163
2012.72714	0.96290
2010.67334	0.96333
2008.61954	0.96299
2006.56574	0.96291
2004.51193	0.96242
2002.45813	0.96045
2000.40433	0.95941
1998.35052	0.96062
1996.29672	0.96096
1994.24292	0.95949
1992.18911	0.95928
1990.13531	0.95989
1988.08151	0.95877
1986.02770	0.95718
1983.97390	0.95652
1981.92010	0.95736
1979.86629	0.96040
1977.81249	0.96341
1975.75869	0.96257
1973.70488	0.95978
1971.65108	0.95943
1969.59728	0.96032
1967.54347	0.96063
1965.48967	0.96183
1963.43587	0.96315
1961.38206	0.96292
1959.32826	0.96238
1957.27446	0.96154
1955.22066	0.95909
1953.16685	0.95812
1951.11305	0.96053
1949.05925	0.96302
1947.00544	0.96328
1944.95164	0.96074
1942.89784	0.95778
1940.84403	0.95722
1938.79023	0.95720
1936.73643	0.95711
1934.68262	0.95795
1932.62882	0.95869
1930.57502	0.95902
1928.52121	0.95978
1926.46741	0.95991
1924.41361	0.95917
1922.35980	0.95868
1920.30600	0.95890
1918.25220	0.96011
1916.19839	0.96096
1914.14459	0.96082
1912.09079	0.96066
1910.03698	0.96064
1907.98318	0.96027
1905.92938	0.95936
1903.87557	0.95869
1901.82177	0.95871
1899.76797	0.95888
1897.71417	0.95885
1895.66036	0.95852
1893.60656	0.95829
1891.55276	0.95861
1889.49895	0.95891
1887.44515	0.95848
1885.39135	0.95805
1883.33754	0.95831
1881.28374	0.95814
1879.22994	0.95684
1877.17613	0.95567
1875.12233	0.95568
1873.06853	0.95631
1871.01472	0.95675
1868.96092	0.95704
1866.90712	0.95693
1864.85331	0.95672
1862.79951	0.95707
1860.74571	0.95741
1858.69190	0.95750
1856.63810	0.95784
1854.58430	0.95827
1852.53049	0.95845
1850.47669	0.95868
1848.42289	0.95907
1846.36908	0.95936
1844.31528	0.95924
1842.26148	0.95889
1840.20768	0.95883
1838.15387	0.95882
1836.10007	0.95861
1834.04627	0.95858
1831.99246	0.95883
1829.93866	0.95930
1827.88486	0.95969
1825.83105	0.95984
1823.77725	0.95985
1821.72345	0.95946
1819.66964	0.95880
1817.61584	0.95846
1815.56204	0.95833
1813.50823	0.95778
1811.45443	0.95718
1809.40063	0.95680
1807.34682	0.95634
1805.29302	0.95612
1803.23922	0.95625
1801.18541	0.95615
1799.13161	0.95597
1797.07781	0.95615
1795.02400	0.95633
1792.97020	0.95657
1790.91640	0.95677
1788.86260	0.95673
1786.80879	0.95679
1784.75499	0.95690
1782.70119	0.95688
1780.64738	0.95676
1778.59358	0.95677
1776.53978	0.95712
1774.48597	0.95768
1772.43217	0.95809
1770.37837	0.95808
1768.32456	0.95779
1766.27076	0.95748
1764.21696	0.95739
1762.16315	0.95754
1760.10935	0.95767
1758.05555	0.95785
1756.00174	0.95783
1753.94794	0.95733
1751.89414	0.95659
1749.84033	0.95552
1747.78653	0.95447
1745.73273	0.95402
1743.67892	0.95383
1741.62512	0.95349
1739.57132	0.95284
1737.51751	0.95201
1735.46371	0.95131
1733.40991	0.95099
1731.35611	0.95091
1729.30230	0.95095
1727.24850	0.95118
1725.19470	0.95137
1723.14089	0.95170
1721.08709	0.95217
1719.03329	0.95261
1716.97948	0.95300
1714.92568	0.95313
1712.87188	0.95312
1710.81807	0.95311
1708.76427	0.95303
1706.71047	0.95298
1704.65666	0.95277
1702.60286	0.95203
1700.54906	0.95114
1698.49525	0.95082
1696.44145	0.95032
1694.38765	0.94953
1692.33384	0.94914
1690.28004	0.94879
1688.22624	0.94835
1686.17243	0.94790
1684.11863	0.94633
1682.06483	0.94448
1680.01103	0.94406
1677.95722	0.94391
1675.90342	0.94327
1673.84962	0.94246
1671.79581	0.94204
1669.74201	0.94126
1667.68821	0.93997
1665.63440	0.93924
1663.58060	0.93881
1661.52680	0.93813
1659.47299	0.93745
1657.41919	0.93702
1655.36539	0.93667
1653.31158	0.93622
1651.25778	0.93630
1649.20398	0.93658
1647.15017	0.93675
1645.09637	0.93689
1643.04257	0.93677
1640.98876	0.93650
1638.93496	0.93659
1636.88116	0.93739
1634.82735	0.93815
1632.77355	0.93779
1630.71975	0.93705
1628.66594	0.93634
1626.61214	0.93601
1624.55834	0.93602
1622.50454	0.93598
1620.45073	0.93624
1618.39693	0.93694
1616.34313	0.93762
1614.28932	0.93818
1612.23552	0.93844
1610.18172	0.93774
1608.12791	0.93570
1606.07411	0.93223
1604.02031	0.92759
1601.96650	0.92363
1599.91270	0.92293
1597.85890	0.92558
1595.80509	0.92970
1593.75129	0.93345
1591.69749	0.93584
1589.64368	0.93691
1587.58988	0.93715
1585.53608	0.93675
1583.48227	0.93615
1581.42847	0.93656
1579.37467	0.93808
1577.32086	0.93991
1575.26706	0.94142
1573.21326	0.94214
1571.15945	0.94265
1569.10565	0.94314
1567.05185	0.94330
1564.99805	0.94319
1562.94424	0.94302
1560.89044	0.94295
1558.83664	0.94312
1556.78283	0.94355
1554.72903	0.94372
1552.67523	0.94348
1550.62142	0.94283
1548.56762	0.94197
1546.51382	0.94129
1544.46001	0.94064
1542.40621	0.93984
1540.35241	0.93895
1538.29860	0.93811
1536.24480	0.93766
1534.19100	0.93741
1532.13719	0.93728
1530.08339	0.93686
1528.02959	0.93602
1525.97578	0.93513
1523.92198	0.93445
1521.86818	0.93332
1519.81437	0.93198
1517.76057	0.93102
1515.70677	0.92992
1513.65297	0.92868
1511.59916	0.92761
1509.54536	0.92668
1507.49156	0.92493
1505.43775	0.92233
1503.38395	0.92089
1501.33015	0.91926
1499.27634	0.91463
1497.22254	0.90092
1495.16874	0.87929
1493.11493	0.86445
1491.06113	0.86327
1489.00733	0.87493
1486.95352	0.88631
1484.89972	0.89174
1482.84592	0.89434
1480.79211	0.89561
1478.73831	0.89615
1476.68451	0.89637
1474.63070	0.89656
1472.57690	0.89691
1470.52310	0.89743
1468.46929	0.89783
1466.41549	0.89796
1464.36169	0.89790
1462.30788	0.89784
1460.25408	0.89712
1458.20028	0.89143
1456.14648	0.87323
1454.09267	0.85561
1452.03887	0.84721
1449.98507	0.84783
1447.93126	0.85457
1445.87746	0.86178
1443.82366	0.86750
1441.76985	0.87239
1439.71605	0.87634
1437.66225	0.88021
1435.60844	0.88440
1433.55464	0.88714
1431.50084	0.88904
1429.44703	0.89091
1427.39323	0.89249
1425.33943	0.89393
1423.28562	0.89541
1421.23182	0.89684
1419.17802	0.89889
1417.12421	0.90169
1415.07041	0.90442
1413.01661	0.90699
1410.96280	0.90931
1408.90900	0.91162
1406.85520	0.91400
1404.80139	0.91606
1402.74759	0.91771
1400.69379	0.91940
1398.63999	0.92132
1396.58618	0.92308
1394.53238	0.92465
1392.47858	0.92600
1390.42477	0.92703
1388.37097	0.92784
1386.31717	0.92820
1384.26336	0.92816
1382.20956	0.92827
1380.15576	0.92844
1378.10195	0.92844
1376.04815	0.92853
1373.99435	0.92889
1371.94054	0.92918
1369.88674	0.92948
1367.83294	0.93022
1365.77913	0.93108
1363.72533	0.93171
1361.67153	0.93252
1359.61772	0.93347
1357.56392	0.93419
1355.51012	0.93476
1353.45631	0.93525
1351.40251	0.93577
1349.34871	0.93637
1347.29491	0.93677
1345.24110	0.93719
1343.18730	0.93797
1341.13350	0.93883
1339.07969	0.93949
1337.02589	0.93978
1334.97209	0.93981
1332.91828	0.93975
1330.86448	0.93933
1328.81068	0.93887
1326.75687	0.93890
1324.70307	0.93918
1322.64927	0.93952
1320.59546	0.93997
1318.54166	0.94023
1316.48786	0.94032
1314.43405	0.94055
1312.38025	0.94093
1310.32645	0.94129
1308.27264	0.94140
1306.21884	0.94139
1304.16504	0.94167
1302.11123	0.94237
1300.05743	0.94310
1298.00363	0.94323
1295.94982	0.94290
1293.89602	0.94284
1291.84222	0.94327
1289.78842	0.94374
1287.73461	0.94381
1285.68081	0.94348
1283.62701	0.94307
1281.57320	0.94284
1279.51940	0.94275
1277.46560	0.94260
1275.41179	0.94238
1273.35799	0.94230
1271.30419	0.94234
1269.25038	0.94239
1267.19658	0.94257
1265.14278	0.94284
1263.08897	0.94298
1261.03517	0.94298
1258.98137	0.94288
1256.92756	0.94283
1254.87376	0.94266
1252.81996	0.94200
1250.76615	0.94119
1248.71235	0.94068
1246.65855	0.94026
1244.60474	0.93972
1242.55094	0.93927
1240.49714	0.93902
1238.44334	0.93885
1236.38953	0.93857
1234.33573	0.93816
1232.28193	0.93774
1230.22812	0.93728
1228.17432	0.93658
1226.12052	0.93578
1224.06671	0.93501
1222.01291	0.93409
1219.95911	0.93300
1217.90530	0.93177
1215.85150	0.93016
1213.79770	0.92802
1211.74389	0.92568
1209.69009	0.92344
1207.63629	0.92122
1205.58248	0.91887
1203.52868	0.91632
1201.47488	0.91363
1199.42107	0.91095
1197.36727	0.90818
1195.31347	0.90519
1193.25966	0.90212
1191.20586	0.89923
1189.15206	0.89597
1187.09825	0.89186
1185.04445	0.88737
1182.99065	0.88283
1180.93685	0.87849
1178.88304	0.87493
1176.82924	0.87216
1174.77544	0.86951
1172.72163	0.86675
1170.66783	0.86386
1168.61403	0.86055
1166.56022	0.85688
1164.50642	0.85369
1162.45262	0.85134
1160.39881	0.84924
1158.34501	0.84694
1156.29121	0.84431
1154.23740	0.84137
1152.18360	0.83914
1150.12980	0.83818
1148.07599	0.83715
1146.02219	0.83539
1143.96839	0.83359
1141.91458	0.83198
1139.86078	0.83031
1137.80698	0.82843
1135.75317	0.82634
1133.69937	0.82401
1131.64557	0.82145
1129.59176	0.81862
1127.53796	0.81529
1125.48416	0.81147
1123.43036	0.80735
1121.37655	0.80300
1119.32275	0.79826
1117.26895	0.79292
1115.21514	0.78747
1113.16134	0.78234
1111.10754	0.77748
1109.05373	0.77332
1106.99993	0.76997
1104.94613	0.76690
1102.89232	0.76423
1100.83852	0.76195
1098.78472	0.75926
1096.73091	0.75635
1094.67711	0.75390
1092.62331	0.75175
1090.56950	0.74974
1088.51570	0.74800
1086.46190	0.74665
1084.40809	0.74537
1082.35429	0.74365
1080.30049	0.74174
1078.24668	0.73973
1076.19288	0.73721
1074.13908	0.73410
1072.08528	0.73038
1070.03147	0.72628
1067.97767	0.72236
1065.92387	0.71845
1063.87006	0.71421
1061.81626	0.70971
1059.76246	0.70494
1057.70865	0.69998
1055.65485	0.69508
1053.60105	0.69010
1051.54724	0.68465
1049.49344	0.67823
1047.43964	0.67094
1045.38583	0.66335
1043.33203	0.65531
1041.27823	0.64673
1039.22442	0.63817
1037.17062	0.62987
1035.11682	0.62154
1033.06301	0.61262
1031.00921	0.60346
1028.95541	0.59580
1026.90160	0.59097
1024.84780	0.58870
1022.79400	0.58770
1020.74019	0.58688
1018.68639	0.58563
1016.63259	0.58390
1014.57879	0.58226
1012.52498	0.58079
1010.47118	0.57880
1008.41738	0.57657
1006.36357	0.57501
1004.30977	0.57467
1002.25597	0.57591
1000.20216	0.57835
998.14836	0.58146
996.09456	0.58552
994.04075	0.59041
991.98695	0.59574
989.93315	0.60145
987.87934	0.60742
985.82554	0.61399
983.77174	0.62157
981.71793	0.62988
979.66413	0.63899
977.61033	0.64926
975.55652	0.66044
973.50272	0.67196
971.44892	0.68313
969.39511	0.69391
967.34131	0.70417
965.28751	0.71326
963.23371	0.72176
961.17990	0.73073
959.12610	0.73981
957.07230	0.74779
955.01849	0.75461
952.96469	0.76103
950.91089	0.76687
948.85708	0.77155
946.80328	0.77541
944.74948	0.77909
942.69567	0.78262
940.64187	0.78587
938.58807	0.78925
936.53426	0.79312
934.48046	0.79721
932.42666	0.80112
930.37285	0.80452
928.31905	0.80716
926.26525	0.80904
924.21144	0.81032
922.15764	0.81118
920.10384	0.81123
918.05003	0.81025
915.99623	0.80870
913.94243	0.80684
911.88862	0.80498
909.83482	0.80410
907.78102	0.80546
905.72722	0.80981
903.67341	0.81675
901.61961	0.82515
899.56581	0.83395
897.51200	0.84191
895.45820	0.84818
893.40440	0.85331
891.35059	0.85775
889.29679	0.86108
887.24299	0.86314
885.18918	0.86379
883.13538	0.86238
881.08158	0.85832
879.02777	0.85242
876.97397	0.84719
874.92017	0.84587
872.86636	0.85036
870.81256	0.85919
868.75876	0.86803
866.70495	0.87333
864.65115	0.87558
862.59735	0.87718
860.54354	0.87940
858.48974	0.88214
856.43594	0.88516
854.38213	0.88899
852.32833	0.89261
850.27453	0.89409
848.22073	0.89378
846.16692	0.89285
844.11312	0.89208
842.05932	0.89151
840.00551	0.89085
837.95171	0.89070
835.89791	0.89099
833.84410	0.89113
831.79030	0.89119
829.73650	0.89130
827.68269	0.89191
825.62889	0.89322
823.57509	0.89442
821.52128	0.89496
819.46748	0.89495
817.41368	0.89467
815.35987	0.89402
813.30607	0.89291
811.25227	0.89133
809.19846	0.88873
807.14466	0.88423
805.09086	0.87741
803.03705	0.86980
800.98325	0.86430
798.92945	0.86203
796.87565	0.86246
794.82184	0.86435
792.76804	0.86566
790.71424	0.86589
788.66043	0.86571
786.60663	0.86459
784.55283	0.86162
782.49902	0.85765
780.44522	0.85387
778.39142	0.85040
776.33761	0.84740
774.28381	0.84443
772.23001	0.83999
770.17620	0.83295
768.12240	0.82392
766.06860	0.81383
764.01479	0.80258
761.96099	0.79085
759.90719	0.78013
757.85338	0.77154
755.79958	0.76611
753.74578	0.76427
751.69197	0.76466
749.63817	0.76548
747.58437	0.76737
745.53056	0.77316
743.47676	0.78424
741.42296	0.79887
739.36916	0.81344
737.31535	0.82571
735.26155	0.83630
733.20775	0.84514
731.15394	0.85112
729.10014	0.85509
727.04634	0.85872
724.99253	0.86218
722.93873	0.86487
720.88493	0.86688
718.83112	0.86893
716.77732	0.86982
714.72352	0.86759
712.66971	0.86305
710.61591	0.85544
708.56211	0.83888
706.50830	0.80816
704.45450	0.76201
702.40070	0.70237
700.34689	0.63400
698.29309	0.56628
696.23929	0.52149
694.18548	0.52844
692.13168	0.58646
690.07788	0.65837
688.02408	0.71288
685.97027	0.74667
683.91647	0.76683
681.86267	0.77840
679.80886	0.78547
677.75506	0.79072
675.70126	0.79454
673.64745	0.79708
671.59365	0.79866
669.53985	0.80088
667.48604	0.80575
665.43224	0.80936
663.37844	0.81137
661.32463	0.81342
659.27083	0.81440
657.21703	0.81384
655.16322	0.81225
653.10942	0.81040
651.05562	0.80931
649.00181	0.80883
646.94801	0.80878
644.89421	0.80970
642.84040	0.81192
640.78660	0.81457
638.73280	0.81670
636.67899	0.81839
634.62519	0.81896
632.57139	0.81824
630.51759	0.81771
628.46378	0.81737
626.40998	0.81607
624.35618	0.81418
622.30237	0.81250
620.24857	0.81091
618.19477	0.80886
616.14096	0.80563
614.08716	0.80132
612.03336	0.79753
609.97955	0.79524
607.92575	0.79345
605.87195	0.79141
603.81814	0.78924
601.76434	0.78687
599.71054	0.78413
597.65673	0.78174
595.60293	0.77940
593.54913	0.77582
591.49532	0.77247
589.44152	0.77119
587.38772	0.77117
585.33391	0.77087
583.28011	0.76973
581.22631	0.76832
579.17250	0.76664
577.11870	0.76450
575.06490	0.76192
573.01110	0.75807
570.95729	0.75283
568.90349	0.74710
566.84969	0.74067
564.79588	0.73387
562.74208	0.72797
560.68828	0.72242
558.63447	0.71660
556.58067	0.71087
554.52687	0.70448
552.47306	0.69657
550.41926	0.68740
548.36546	0.67670
546.31165	0.66438
544.25785	0.65151
542.20405	0.63791
540.15024	0.62432
538.09644	0.61484
536.04264	0.61037
533.98883	0.60794
531.93503	0.60806
529.88123	0.61256
527.82742	0.61912
525.77362	0.62482
523.71982	0.63003
521.66602	0.63681
519.61221	0.64486
517.55841	0.65181
515.50461	0.65789
513.45080	0.66361
511.39700	0.66809
509.34320	0.67219
507.28939	0.67663
505.23559	0.68037
503.18179	0.68310
501.12798	0.68539
499.07418	0.68622
497.02038	0.68422
494.96657	0.68050
492.91277	0.67702
490.85897	0.67279
488.80516	0.66559
486.75136	0.65471
484.69756	0.64144
482.64375	0.62739
480.58995	0.61184
478.53615	0.59407
476.48234	0.57706
474.42854	0.56345
472.37474	0.55121
470.32093	0.54136
468.26713	0.53671
466.21333	0.53595
464.15953	0.53747
462.10572	0.54081
460.05192	0.54593
457.99812	0.55459
455.94431	0.56769
453.89051	0.57998
451.83671	0.58825
449.78290	0.59436
447.72910	0.60062
445.67530	0.60477
443.62149	0.60426
441.56769	0.60129
439.51389	0.59991
437.46008	0.60013
435.40628	0.59832
433.35248	0.59501
431.29867	0.59360
429.24487	0.59279
427.19107	0.59257
425.13726	0.59393
423.08346	0.59569
421.02966	0.60024
418.97585	0.61260
416.92205	0.62428
414.86825	0.62783
412.81445	0.62883
410.76064	0.63143
408.70684	0.64040
406.65304	0.65152
404.59923	0.65369
402.54543	0.64817
400.49163	0.64338
398.43782	0.64259
