3996.71440	0.98275
3994.66059	0.98243
3992.60678	0.98252
3990.55297	0.98262
3988.49916	0.98257
3986.44535	0.98260
3984.39154	0.98268
3982.33773	0.98277
3980.28391	0.98269
3978.23010	0.98221
3976.17629	0.98185
3974.12248	0.98219
3972.06867	0.98265
3970.01486	0.98258
3967.96105	0.98230
3965.90724	0.98214
3963.85343	0.98222
3961.79962	0.98258
3959.74581	0.98274
3957.69200	0.98246
3955.63819	0.98223
3953.58438	0.98224
3951.53057	0.98218
3949.47676	0.98207
3947.42295	0.98212
3945.36914	0.98217
3943.31533	0.98225
3941.26152	0.98249
3939.20771	0.98266
3937.15390	0.98257
3935.10009	0.98231
3933.04628	0.98222
3930.99247	0.98242
3928.93866	0.98271
3926.88485	0.98267
3924.83104	0.98235
3922.77723	0.98216
3920.72342	0.98209
3918.66961	0.98202
3916.61580	0.98213
3914.56199	0.98242
3912.50818	0.98254
3910.45437	0.98252
3908.40056	0.98260
3906.34675	0.98277
3904.29294	0.98293
3902.23913	0.98290
3900.18532	0.98292
3898.13151	0.98314
3896.07770	0.98334
3894.02389	0.98343
3891.97008	0.98329
3889.91627	0.98299
3887.86246	0.98284
3885.80865	0.98272
3883.75484	0.98232
3881.70103	0.98177
3879.64722	0.98158
3877.59341	0.98187
3875.53960	0.98226
3873.48579	0.98262
3871.43198	0.98289
3869.37817	0.98306
3867.32436	0.98313
3865.27055	0.98300
3863.21674	0.98282
3861.16293	0.98289
3859.10912	0.98311
3857.05531	0.98312
3855.00150	0.98301
3852.94769	0.98341
3850.89388	0.98349
3848.84007	0.98292
3846.78626	0.98253
3844.73245	0.98264
3842.67864	0.98296
3840.62483	0.98316
3838.57102	0.98320
3836.51721	0.98321
3834.46340	0.98319
3832.40959	0.98305
3830.35578	0.98305
3828.30197	0.98325
3826.24816	0.98327
3824.19435	0.98317
3822.14054	0.98320
3820.08673	0.98334
3818.03292	0.98345
3815.97911	0.98341
3813.92530	0.98322
3811.87149	0.98319
3809.81768	0.98341
3807.76387	0.98369
3805.71006	0.98366
3803.65625	0.98321
3801.60244	0.98283
3799.54863	0.98304
3797.49482	0.98325
3795.44101	0.98323
3793.38720	0.98329
3791.33339	0.98341
3789.27958	0.98344
3787.22577	0.98333
3785.17196	0.98310
3783.11815	0.98288
3781.06434	0.98283
3779.01053	0.98301
3776.95672	0.98314
3774.90291	0.98305
3772.84910	0.98292
3770.79529	0.98313
3768.74148	0.98355
3766.68767	0.98359
3764.63386	0.98332
3762.58005	0.98312
3760.52624	0.98300
3758.47243	0.98307
3756.41862	0.98331
3754.36481	0.98342
3752.31100	0.98346
3750.25719	0.98354
3748.20338	0.98345
3746.14957	0.98332
3744.09576	0.98324
3742.04195	0.98290
3739.98814	0.98257
3737.93433	0.98259
3735.88052	0.98303
3733.82671	0.98346
3731.77290	0.98366
3729.71909	0.98370
3727.66528	0.98359
3725.61147	0.98341
3723.55766	0.98297
3721.50385	0.98255
3719.45004	0.98237
3717.39623	0.98201
3715.34242	0.98150
3713.28861	0.98089
3711.23480	0.97980
3709.18099	0.97810
3707.12718	0.97631
3705.07337	0.97479
3703.01956	0.97334
3700.96575	0.97201
3698.91194	0.97140
3696.85813	0.97145
3694.80432	0.97184
3692.75051	0.97280
3690.69670	0.97435
3688.64289	0.97568
3686.58907	0.97641
3684.53526	0.97689
3682.48145	0.97723
3680.42764	0.97747
3678.37383	0.97733
3676.32002	0.97667
3674.26621	0.97625
3672.21240	0.97631
3670.15859	0.97654
3668.10478	0.97678
3666.05097	0.97649
3663.99716	0.97592
3661.94335	0.97559
3659.88954	0.97545
3657.83573	0.97533
3655.78192	0.97504
3653.72811	0.97476
3651.67430	0.97466
3649.62049	0.97474
3647.56668	0.97504
3645.51287	0.97505
3643.45906	0.97488
3641.40525	0.97465
3639.35144	0.97423
3637.29763	0.97390
3635.24382	0.97368
3633.19001	0.97322
3631.13620	0.97280
3629.08239	0.97270
3627.02858	0.97232
3624.97477	0.97145
3622.92096	0.97059
3620.86715	0.97027
3618.81334	0.97055
3616.75953	0.97112
3614.70572	0.97180
3612.65191	0.97214
3610.59810	0.97203
3608.54429	0.97220
3606.49048	0.97255
3604.43667	0.97232
3602.38286	0.97162
3600.32905	0.97124
3598.27524	0.97170
3596.22143	0.97239
3594.16762	0.97270
3592.11381	0.97282
3590.06000	0.97292
3588.00619	0.97293
3585.95238	0.97296
3583.89857	0.97274
3581.84476	0.97236
3579.79095	0.97231
3577.73714	0.97231
3575.68333	0.97214
3573.62952	0.97203
3571.57571	0.97199
3569.52190	0.97174
3567.46809	0.97122
3565.41428	0.97114
3563.36047	0.97139
3561.30666	0.97127
3559.25285	0.97087
3557.19904	0.97038
3555.14523	0.96994
3553.09142	0.96975
3551.03761	0.96967
3548.98380	0.96963
3546.92999	0.96963
3544.87618	0.96937
3542.82237	0.96882
3540.76856	0.96836
3538.71475	0.96811
3536.66094	0.96788
3534.60713	0.96762
3532.55332	0.96738
3530.49951	0.96706
3528.44570	0.96678
3526.39189	0.96659
3524.33808	0.96640
3522.28427	0.96616
3520.23046	0.96590
3518.17665	0.96582
3516.12284	0.96594
3514.06903	0.96595
3512.01522	0.96570
3509.96141	0.96555
3507.90760	0.96569
3505.85379	0.96584
3503.79998	0.96584
3501.74617	0.96580
3499.69236	0.96557
3497.63855	0.96503
3495.58474	0.96433
3493.53093	0.96368
3491.47712	0.96344
3489.42331	0.96373
3487.36950	0.96407
3485.31569	0.96406
3483.26188	0.96381
3481.20807	0.96368
3479.15426	0.96369
3477.10045	0.96364
3475.04664	0.96348
3472.99283	0.96311
3470.93902	0.96246
3468.88521	0.96182
3466.83140	0.96160
3464.77759	0.96189
3462.72378	0.96223
3460.66997	0.96225
3458.61616	0.96198
3456.56235	0.96169
3454.50854	0.96155
3452.45473	0.96155
3450.40092	0.96162
3448.34711	0.96151
3446.29330	0.96123
3444.23949	0.96103
3442.18568	0.96078
3440.13187	0.96053
3438.07806	0.96034
3436.02425	0.96013
3433.97044	0.96014
3431.91663	0.96026
3429.86282	0.96011
3427.80901	0.96004
3425.75520	0.96021
3423.70139	0.96023
3421.64758	0.96004
3419.59377	0.95998
3417.53996	0.96010
3415.48615	0.96016
3413.43234	0.96009
3411.37853	0.96013
3409.32472	0.96030
3407.27091	0.96042
3405.21710	0.96039
3403.16329	0.96014
3401.10948	0.95994
3399.05567	0.95984
3397.00186	0.95947
3394.94805	0.95909
3392.89424	0.95908
3390.84042	0.95942
3388.78661	0.95980
3386.73280	0.95990
3384.67899	0.95975
3382.62518	0.95940
3380.57137	0.95894
3378.51756	0.95881
3376.46375	0.95922
3374.40994	0.95960
3372.35613	0.95957
3370.30232	0.95957
3368.24851	0.95984
3366.19470	0.96010
3364.14089	0.95997
3362.08708	0.95971
3360.03327	0.95977
3357.97946	0.95989
3355.92565	0.95985
3353.87184	0.95984
3351.81803	0.95994
3349.76422	0.95991
3347.71041	0.95972
3345.65660	0.95957
3343.60279	0.95981
3341.54898	0.96024
3339.49517	0.96032
3337.44136	0.96017
3335.38755	0.96014
3333.33374	0.96017
3331.27993	0.96014
3329.22612	0.96017
3327.17231	0.96040
3325.11850	0.96059
3323.06469	0.96060
3321.01088	0.96069
3318.95707	0.96061
3316.90326	0.96027
3314.84945	0.96010
3312.79564	0.96018
3310.74183	0.96042
3308.68802	0.96067
3306.63421	0.96070
3304.58040	0.96058
3302.52659	0.96052
3300.47278	0.96075
3298.41897	0.96112
3296.36516	0.96108
3294.31135	0.96082
3292.25754	0.96086
3290.20373	0.96103
3288.14992	0.96099
3286.09611	0.96084
3284.04230	0.96080
3281.98849	0.96093
3279.93468	0.96115
3277.88087	0.96136
3275.82706	0.96141
3273.77325	0.96138
3271.71944	0.96143
3269.66563	0.96153
3267.61182	0.96174
3265.55801	0.96203
3263.50420	0.96231
3261.45039	0.96252
3259.39658	0.96267
3257.34277	0.96287
3255.28896	0.96307
3253.23515	0.96317
3251.18134	0.96308
3249.12753	0.96297
3247.07372	0.96293
3245.01991	0.96299
3242.96610	0.96322
3240.91229	0.96339
3238.85848	0.96345
3236.80467	0.96376
3234.75086	0.96418
3232.69705	0.96435
3230.64324	0.96437
3228.58943	0.96447
3226.53562	0.96458
3224.48181	0.96471
3222.42800	0.96486
3220.37419	0.96487
3218.32038	0.96480
3216.26657	0.96478
3214.21276	0.96477
3212.15895	0.96493
3210.10514	0.96528
3208.05133	0.96572
3205.99752	0.96608
3203.94371	0.96618
3201.88990	0.96634
3199.83609	0.96662
3197.78228	0.96658
3195.72847	0.96626
3193.67466	0.96599
3191.62085	0.96597
3189.56704	0.96627
3187.51323	0.96677
3185.45942	0.96719
3183.40561	0.96745
3181.35180	0.96747
3179.29799	0.96715
3177.24418	0.96684
3175.19037	0.96689
3173.13656	0.96722
3171.08275	0.96757
3169.02894	0.96783
3166.97513	0.96806
3164.92132	0.96831
3162.86751	0.96859
3160.81370	0.96882
3158.75989	0.96882
3156.70608	0.96877
3154.65227	0.96882
3152.59846	0.96876
3150.54465	0.96877
3148.49084	0.96924
3146.43703	0.96979
3144.38322	0.96996
3142.32941	0.97012
3140.27560	0.97029
3138.22179	0.97007
3136.16798	0.96974
3134.11417	0.96962
3132.06036	0.96977
3130.00655	0.97010
3127.95274	0.97038
3125.89893	0.97052
3123.84512	0.97052
3121.79131	0.97055
3119.73750	0.97082
3117.68369	0.97093
3115.62988	0.97066
3113.57607	0.97044
3111.52226	0.97050
3109.46845	0.97062
3107.41464	0.97070
3105.36083	0.97074
3103.30702	0.97067
3101.25321	0.97066
3099.19940	0.97086
3097.14559	0.97098
3095.09177	0.97085
3093.03796	0.97054
3090.98415	0.97007
3088.93034	0.96963
3086.87653	0.96955
3084.82272	0.96972
3082.76891	0.96983
3080.71510	0.96987
3078.66129	0.96975
3076.60748	0.96951
3074.55367	0.96950
3072.49986	0.96966
3070.44605	0.96975
3068.39224	0.96986
3066.33843	0.97009
3064.28462	0.97017
3062.23081	0.97007
3060.17700	0.97010
3058.12319	0.97012
3056.06938	0.97001
3054.01557	0.96994
3051.96176	0.96978
3049.90795	0.96952
3047.85414	0.96933
3045.80033	0.96929
3043.74652	0.96948
3041.69271	0.96972
3039.63890	0.96976
3037.58509	0.96962
3035.53128	0.96930
3033.47747	0.96888
3031.42366	0.96872
3029.36985	0.96887
3027.31604	0.96905
3025.26223	0.96911
3023.20842	0.96908
3021.15461	0.96889
3019.10080	0.96857
3017.04699	0.96841
3014.99318	0.96843
3012.93937	0.96835
3010.88556	0.96824
3008.83175	0.96820
3006.77794	0.96808
3004.72413	0.96774
3002.67032	0.96739
3000.61651	0.96726
2998.56270	0.96697
2996.50889	0.96632
2994.45508	0.96567
2992.40127	0.96517
2990.34746	0.96457
2988.29365	0.96367
2986.23984	0.96250
2984.18603	0.96099
2982.13222	0.95918
2980.07841	0.95738
2978.02460	0.95558
2975.97079	0.95356
2973.91698	0.95100
2971.86317	0.94764
2969.80936	0.94365
2967.75555	0.93948
2965.70174	0.93526
2963.64793	0.93071
2961.59412	0.92596
2959.54031	0.92161
2957.48650	0.91785
2955.43269	0.91428
2953.37888	0.91055
2951.32507	0.90672
2949.27126	0.90213
2947.21745	0.89530
2945.16364	0.88536
2943.10983	0.87234
2941.05602	0.85632
2939.00221	0.83722
2936.94840	0.81504
2934.89459	0.78973
2932.84078	0.76104
2930.78697	0.72867
2928.73316	0.69190
2926.67935	0.64936
2924.62554	0.59954
2922.57173	0.54226
2920.51792	0.48103
2918.46411	0.42432
2916.41030	0.38497
2914.35649	0.37477
2912.30268	0.39505
2910.24887	0.43515
2908.19506	0.48111
2906.14125	0.52384
2904.08744	0.55983
2902.03363	0.58885
2899.97982	0.61240
2897.92601	0.63269
2895.87220	0.65153
2893.81839	0.66990
2891.76458	0.68824
2889.71077	0.70680
2887.65696	0.72569
2885.60315	0.74464
2883.54934	0.76313
2881.49553	0.78094
2879.44172	0.79790
2877.38791	0.81323
2875.33410	0.82595
2873.28029	0.83528
2871.22648	0.84088
2869.17267	0.84285
2867.11886	0.84092
2865.06505	0.83393
2863.01124	0.82039
2860.95743	0.79862
2858.90362	0.76608
2856.84981	0.71884
2854.79600	0.65250
2852.74219	0.56675
2850.68838	0.47659
2848.63457	0.41643
2846.58076	0.41607
2844.52695	0.47157
2842.47314	0.55291
2840.41933	0.63320
2838.36552	0.70029
2836.31171	0.75197
2834.25790	0.79069
2832.20409	0.81986
2830.15028	0.84198
2828.09647	0.85894
2826.04266	0.87237
2823.98885	0.88337
2821.93504	0.89249
2819.88123	0.89996
2817.82742	0.90626
2815.77361	0.91181
2813.71980	0.91669
2811.66599	0.92078
2809.61218	0.92418
2807.55837	0.92731
2805.50456	0.93015
2803.45075	0.93259
2801.39693	0.93488
2799.34312	0.93714
2797.28931	0.93932
2795.23550	0.94122
2793.18169	0.94291
2791.12788	0.94472
2789.07407	0.94657
2787.02026	0.94827
2784.96645	0.94974
2782.91264	0.95101
2780.85883	0.95234
2778.80502	0.95370
2776.75121	0.95476
2774.69740	0.95553
2772.64359	0.95625
2770.58978	0.95692
2768.53597	0.95752
2766.48216	0.95816
2764.42835	0.95888
2762.37454	0.95953
2760.32073	0.95994
2758.26692	0.96028
2756.21311	0.96075
2754.15930	0.96125
2752.10549	0.96163
2750.05168	0.96177
2747.99787	0.96182
2745.94406	0.96203
2743.89025	0.96232
2741.83644	0.96253
2739.78263	0.96266
2737.72882	0.96273
2735.67501	0.96270
2733.62120	0.96277
2731.56739	0.96306
2729.51358	0.96341
2727.45977	0.96381
2725.40596	0.96438
2723.35215	0.96483
2721.29834	0.96490
2719.24453	0.96488
2717.19072	0.96511
2715.13691	0.96548
2713.08310	0.96574
2711.02929	0.96593
2708.97548	0.96613
2706.92167	0.96638
2704.86786	0.96678
2702.81405	0.96718
2700.76024	0.96732
2698.70643	0.96728
2696.65262	0.96736
2694.59881	0.96760
2692.54500	0.96773
2690.49119	0.96770
2688.43738	0.96763
2686.38357	0.96765
2684.32976	0.96775
2682.27595	0.96782
2680.22214	0.96780
2678.16833	0.96763
2676.11452	0.96738
2674.06071	0.96721
2672.00690	0.96707
2669.95309	0.96690
2667.89928	0.96676
2665.84547	0.96666
2663.79166	0.96649
2661.73785	0.96623
2659.68404	0.96610
2657.63023	0.96611
2655.57642	0.96597
2653.52261	0.96587
2651.46880	0.96609
2649.41499	0.96638
2647.36118	0.96643
2645.30737	0.96639
2643.25356	0.96644
2641.19975	0.96650
2639.14594	0.96647
2637.09213	0.96642
2635.03832	0.96656
2632.98451	0.96681
2630.93070	0.96700
2628.87689	0.96712
2626.82308	0.96749
2624.76927	0.96837
2622.71546	0.96922
2620.66165	0.96954
2618.60784	0.96985
2616.55403	0.97042
2614.50022	0.97078
2612.44641	0.97079
2610.39260	0.97081
2608.33879	0.97112
2606.28498	0.97161
2604.23117	0.97194
2602.17736	0.97210
2600.12355	0.97236
2598.06974	0.97285
2596.01593	0.97337
2593.96212	0.97375
2591.90831	0.97389
2589.85450	0.97387
2587.80069	0.97397
2585.74688	0.97415
2583.69307	0.97428
2581.63926	0.97434
2579.58545	0.97433
2577.53164	0.97451
2575.47783	0.97502
2573.42402	0.97546
2571.37021	0.97553
2569.31640	0.97546
2567.26259	0.97532
2565.20878	0.97526
2563.15497	0.97571
2561.10116	0.97621
2559.04735	0.97627
2556.99354	0.97630
2554.93973	0.97631
2552.88592	0.97597
2550.83211	0.97577
2548.77830	0.97610
2546.72449	0.97659
2544.67068	0.97683
2542.61687	0.97660
2540.56306	0.97626
2538.50925	0.97630
2536.45544	0.97640
2534.40163	0.97649
2532.34782	0.97680
2530.29401	0.97708
2528.24020	0.97713
2526.18639	0.97712
2524.13258	0.97706
2522.07877	0.97713
2520.02496	0.97751
2517.97115	0.97807
2515.91734	0.97844
2513.86353	0.97824
2511.80972	0.97784
2509.75591	0.97810
2507.70210	0.97860
2505.64828	0.97870
2503.59447	0.97876
2501.54066	0.97871
2499.48685	0.97880
2497.43304	0.97945
2495.37923	0.97986
2493.32542	0.97966
2491.27161	0.97949
2489.21780	0.97960
2487.16399	0.97976
2485.11018	0.97989
2483.05637	0.97992
2481.00256	0.97998
2478.94875	0.98008
2476.89494	0.97994
2474.84113	0.97986
2472.78732	0.98005
2470.73351	0.98027
2468.67970	0.98068
2466.62589	0.98114
2464.57208	0.98110
2462.51827	0.98081
2460.46446	0.98081
2458.41065	0.98079
2456.35684	0.98047
2454.30303	0.98026
2452.24922	0.98042
2450.19541	0.98052
2448.14160	0.98024
2446.08779	0.98002
2444.03398	0.98030
2441.98017	0.98077
2439.92636	0.98104
2437.87255	0.98143
2435.81874	0.98182
2433.76493	0.98156
2431.71112	0.98090
2429.65731	0.98070
2427.60350	0.98096
2425.54969	0.98128
2423.49588	0.98132
2421.44207	0.98104
2419.38826	0.98091
2417.33445	0.98103
2415.28064	0.98100
2413.22683	0.98077
2411.17302	0.98054
2409.11921	0.98056
2407.06540	0.98103
2405.01159	0.98141
2402.95778	0.98135
2400.90397	0.98120
2398.85016	0.98096
2396.79635	0.98084
2394.74254	0.98116
2392.68873	0.98139
2390.63492	0.98118
2388.58111	0.98088
2386.52730	0.98090
2384.47349	0.98130
2382.41968	0.98161
2380.36587	0.98141
2378.31206	0.98119
2376.25825	0.98149
2374.20444	0.98178
2372.15063	0.98193
2370.09682	0.98220
2368.04301	0.98236
2365.98920	0.98245
2363.93539	0.98304
2361.88158	0.98370
2359.82777	0.98319
2357.77396	0.98148
2355.72015	0.98031
2353.66634	0.98033
2351.61253	0.98010
2349.55872	0.97950
2347.50491	0.97925
2345.45110	0.97914
2343.39729	0.97890
2341.34348	0.97906
2339.28967	0.97939
2337.23586	0.97914
2335.18205	0.97879
2333.12824	0.97909
2331.07443	0.97975
2329.02062	0.97958
2326.96681	0.97828
2324.91300	0.97728
2322.85919	0.97752
2320.80538	0.97824
2318.75157	0.97871
2316.69776	0.97895
2314.64395	0.97909
2312.59014	0.97922
2310.53633	0.97944
2308.48252	0.97980
2306.42871	0.97984
2304.37490	0.97942
2302.32109	0.97908
2300.26728	0.97924
2298.21347	0.97964
2296.15966	0.97970
2294.10585	0.97981
2292.05204	0.98025
2289.99823	0.98031
2287.94442	0.98002
2285.89061	0.97990
2283.83680	0.98015
2281.78299	0.98077
2279.72918	0.98160
2277.67537	0.98204
2275.62156	0.98134
2273.56775	0.98074
2271.51394	0.98149
2269.46013	0.98212
2267.40632	0.98208
2265.35251	0.98224
2263.29870	0.98229
2261.24489	0.98166
2259.19108	0.98085
2257.13727	0.98071
2255.08346	0.98132
2253.02965	0.98257
2250.97584	0.98408
2248.92203	0.98457
2246.86822	0.98391
2244.81441	0.98367
2242.76060	0.98424
2240.70679	0.98441
2238.65298	0.98419
2236.59917	0.98419
2234.54536	0.98387
2232.49155	0.98311
2230.43774	0.98225
2228.38393	0.98175
2226.33012	0.98175
2224.27631	0.98202
2222.22250	0.98266
2220.16869	0.98305
2218.11488	0.98293
2216.06107	0.98285
2214.00726	0.98275
2211.95344	0.98281
2209.89963	0.98354
2207.84582	0.98435
2205.79201	0.98423
2203.73820	0.98367
2201.68439	0.98393
2199.63058	0.98504
2197.57677	0.98533
2195.52296	0.98437
2193.46915	0.98357
2191.41534	0.98325
2189.36153	0.98240
2187.30772	0.98138
2185.25391	0.98194
2183.20010	0.98339
2181.14629	0.98401
2179.09248	0.98393
2177.03867	0.98419
2174.98486	0.98544
2172.93105	0.98681
2170.87724	0.98711
2168.82343	0.98618
2166.76962	0.98462
2164.71581	0.98335
2162.66200	0.98294
2160.60819	0.98525
2158.55438	0.98995
2156.50057	0.99159
2154.44676	0.98969
2152.39295	0.98789
2150.33914	0.98757
2148.28533	0.98748
2146.23152	0.98631
2144.17771	0.98445
2142.12390	0.98280
2140.07009	0.98245
2138.01628	0.98371
2135.96247	0.98593
2133.90866	0.98749
2131.85485	0.98715
2129.80104	0.98597
2127.74723	0.98524
2125.69342	0.98516
2123.63961	0.98527
2121.58580	0.98518
2119.53199	0.98486
2117.47818	0.98435
2115.42437	0.98408
2113.37056	0.98408
2111.31675	0.98403
2109.26294	0.98430
2107.20913	0.98464
2105.15532	0.98438
2103.10151	0.98381
2101.04770	0.98321
2098.99389	0.98309
2096.94008	0.98382
2094.88627	0.98469
2092.83246	0.98485
2090.77865	0.98432
2088.72484	0.98386
2086.67103	0.98348
2084.61722	0.98313
2082.56341	0.98332
2080.50960	0.98353
2078.45579	0.98321
2076.40198	0.98286
2074.34817	0.98289
2072.29436	0.98295
2070.24055	0.98307
2068.18674	0.98351
2066.13293	0.98416
2064.07912	0.98467
2062.02531	0.98445
2059.97150	0.98342
2057.91769	0.98206
2055.86388	0.98161
2053.81007	0.98225
2051.75626	0.98239
2049.70245	0.98222
2047.64864	0.98286
2045.59483	0.98366
2043.54102	0.98394
2041.48721	0.98438
2039.43340	0.98525
2037.37959	0.98465
2035.32578	0.98262
2033.27197	0.98249
2031.21816	0.98421
2029.16435	0.98483
2027.11054	0.98420
2025.05673	0.98421
2023.00292	0.98531
2020.94911	0.98615
2018.89530	0.98591
2016.84149	0.98477
2014.78768	0.98394
2012.73387	0.98469
2010.68006	0.98600
2008.62625	0.98651
2006.57244	0.98633
2004.51863	0.98592
2002.46482	0.98526
2000.41101	0.98415
1998.35720	0.98399
1996.30339	0.98519
1994.24958	0.98610
1992.19577	0.98598
1990.14196	0.98421
1988.08815	0.98202
1986.03434	0.98145
1983.98053	0.98204
1981.92672	0.98313
1979.87291	0.98455
1977.81910	0.98613
1975.76529	0.98671
1973.71148	0.98580
1971.65767	0.98553
1969.60386	0.98601
1967.55005	0.98538
1965.49624	0.98472
1963.44243	0.98582
1961.38862	0.98720
1959.33481	0.98713
1957.28100	0.98675
1955.22719	0.98681
1953.17338	0.98610
1951.11957	0.98510
1949.06576	0.98459
1947.01195	0.98386
1944.95814	0.98377
1942.90433	0.98463
1940.85052	0.98461
1938.79671	0.98417
1936.74290	0.98453
1934.68909	0.98465
1932.63528	0.98415
1930.58147	0.98390
1928.52766	0.98373
1926.47385	0.98341
1924.42004	0.98301
1922.36623	0.98273
1920.31242	0.98300
1918.25861	0.98350
1916.20479	0.98369
1914.15098	0.98374
1912.09717	0.98377
1910.04336	0.98353
1907.98955	0.98299
1905.93574	0.98241
1903.88193	0.98215
1901.82812	0.98231
1899.77431	0.98217
1897.72050	0.98170
1895.66669	0.98164
1893.61288	0.98192
1891.55907	0.98208
1889.50526	0.98235
1887.45145	0.98292
1885.39764	0.98316
1883.34383	0.98278
1881.29002	0.98229
1879.23621	0.98214
1877.18240	0.98231
1875.12859	0.98264
1873.07478	0.98299
1871.02097	0.98299
1868.96716	0.98270
1866.91335	0.98263
1864.85954	0.98251
1862.80573	0.98210
1860.75192	0.98193
1858.69811	0.98228
1856.64430	0.98267
1854.59049	0.98263
1852.53668	0.98242
1850.48287	0.98253
1848.42906	0.98260
1846.37525	0.98246
1844.32144	0.98244
1842.26763	0.98221
1840.21382	0.98182
1838.16001	0.98189
1836.10620	0.98230
1834.05239	0.98249
1831.99858	0.98252
1829.94477	0.98241
1827.89096	0.98204
1825.83715	0.98159
1823.78334	0.98143
1821.72953	0.98160
1819.67572	0.98151
1817.62191	0.98112
1815.56810	0.98076
1813.51429	0.98042
1811.46048	0.97998
1809.40667	0.97960
1807.35286	0.97927
1805.29905	0.97878
1803.24524	0.97816
1801.19143	0.97773
1799.13762	0.97756
1797.08381	0.97704
1795.03000	0.97603
1792.97619	0.97480
1790.92238	0.97361
1788.86857	0.97261
1786.81476	0.97174
1784.76095	0.97087
1782.70714	0.97021
1780.65333	0.96991
1778.59952	0.96983
1776.54571	0.96978
1774.49190	0.96965
1772.43809	0.96929
1770.38428	0.96864
1768.33047	0.96809
1766.27666	0.96774
1764.22285	0.96748
1762.16904	0.96730
1760.11523	0.96708
1758.06142	0.96642
1756.00761	0.96530
1753.95380	0.96402
1751.89999	0.96232
1749.84618	0.95978
1747.79237	0.95675
1745.73856	0.95364
1743.68475	0.95047
1741.63094	0.94735
1739.57713	0.94453
1737.52332	0.94269
1735.46951	0.94170
1733.41570	0.94072
1731.36189	0.93943
1729.30808	0.93722
1727.25427	0.93312
1725.20046	0.92684
1723.14665	0.91912
1721.09284	0.91231
1719.03903	0.90701
1716.98522	0.90238
1714.93141	0.89989
1712.87760	0.90022
1710.82379	0.90280
1708.76998	0.90691
1706.71617	0.91213
1704.66236	0.91778
1702.60855	0.92228
1700.55474	0.92660
1698.50093	0.93067
1696.44712	0.93436
1694.39331	0.93841
1692.33950	0.94131
1690.28569	0.94343
1688.23188	0.94505
1686.17807	0.94601
1684.12426	0.94670
1682.07045	0.94695
1680.01664	0.94672
1677.96283	0.94634
1675.90902	0.94593
1673.85521	0.94565
1671.80140	0.94542
1669.74759	0.94485
1667.69378	0.94412
1665.63997	0.94372
1663.58616	0.94344
1661.53235	0.94293
1659.47854	0.94254
1657.42473	0.94238
1655.37092	0.94217
1653.31711	0.94185
1651.26330	0.94174
1649.20949	0.94172
1647.15568	0.94160
1645.10187	0.94152
1643.04806	0.94142
1640.99425	0.94139
1638.94044	0.94164
1636.88663	0.94203
1634.83282	0.94229
1632.77901	0.94248
1630.72520	0.94267
1628.67139	0.94295
1626.61758	0.94338
1624.56377	0.94392
1622.50996	0.94457
1620.45614	0.94510
1618.40233	0.94564
1616.34852	0.94643
1614.29471	0.94734
1612.24090	0.94818
1610.18709	0.94875
1608.13328	0.94908
1606.07947	0.94940
1604.02566	0.94957
1601.97185	0.94957
1599.91804	0.94955
1597.86423	0.94941
1595.81042	0.94914
1593.75661	0.94891
1591.70280	0.94882
1589.64899	0.94875
1587.59518	0.94856
1585.54137	0.94825
1583.48756	0.94779
1581.43375	0.94731
1579.37994	0.94708
1577.32613	0.94684
1575.27232	0.94607
1573.21851	0.94544
1571.16470	0.94501
1569.11089	0.94428
1567.05708	0.94343
1565.00327	0.94268
1562.94946	0.94204
1560.89565	0.94145
1558.84184	0.94058
1556.78803	0.93979
1554.73422	0.93926
1552.68041	0.93866
1550.62660	0.93791
1548.57279	0.93720
1546.51898	0.93688
1544.46517	0.93665
1542.41136	0.93596
1540.35755	0.93421
1538.30374	0.93220
1536.24993	0.93124
1534.19612	0.93045
1532.14231	0.92957
1530.08850	0.92907
1528.03469	0.92856
1525.98088	0.92775
1523.92707	0.92712
1521.87326	0.92644
1519.81945	0.92547
1517.76564	0.92464
1515.71183	0.92403
1513.65802	0.92361
1511.60421	0.92331
1509.55040	0.92293
1507.49659	0.92196
1505.44278	0.92056
1503.38897	0.91982
1501.33516	0.91920
1499.28135	0.91814
1497.22754	0.91652
1495.17373	0.91487
1493.11992	0.91382
1491.06611	0.91264
1489.01230	0.91055
1486.95849	0.90810
1484.90468	0.90581
1482.85087	0.90277
1480.79706	0.89710
1478.74325	0.88442
1476.68944	0.85109
1474.63563	0.78561
1472.58182	0.72108
1470.52801	0.71146
1468.47420	0.72800
1466.42039	0.73180
1464.36658	0.71893
1462.31277	0.71954
1460.25896	0.74770
1458.20515	0.78973
1456.15134	0.82464
1454.09753	0.84231
1452.04372	0.85431
1449.98991	0.86461
1447.93610	0.87273
1445.88229	0.87874
1443.82848	0.88301
1441.77467	0.88641
1439.72086	0.88940
1437.66705	0.89255
1435.61324	0.89615
1433.55943	0.89931
1431.50562	0.90221
1429.45181	0.90525
1427.39800	0.90795
1425.34419	0.90994
1423.29038	0.91123
1421.23657	0.91190
1419.18276	0.91211
1417.12895	0.91183
1415.07514	0.91133
1413.02133	0.91118
1410.96752	0.91198
1408.91371	0.91379
1406.85990	0.91629
1404.80609	0.91931
1402.75228	0.92236
1400.69847	0.92511
1398.64466	0.92754
1396.59085	0.92965
1394.53704	0.93155
1392.48323	0.93300
1390.42942	0.93388
1388.37561	0.93417
1386.32180	0.93351
1384.26799	0.93179
1382.21418	0.92889
1380.16037	0.92506
1378.10656	0.92191
1376.05275	0.92099
1373.99894	0.92191
1371.94513	0.92286
1369.89132	0.92346
1367.83751	0.92455
1365.78370	0.92610
1363.72989	0.92767
1361.67608	0.92922
1359.62227	0.93044
1357.56846	0.93125
1355.51465	0.93193
1353.46084	0.93263
1351.40703	0.93343
1349.35322	0.93443
1347.29941	0.93570
1345.24560	0.93709
1343.19179	0.93825
1341.13798	0.93912
1339.08417	0.93984
1337.03036	0.94066
1334.97655	0.94151
1332.92274	0.94211
1330.86893	0.94241
1328.81512	0.94227
1326.76130	0.94176
1324.70749	0.94131
1322.65368	0.94070
1320.59987	0.93984
1318.54606	0.93907
1316.49225	0.93859
1314.43844	0.93822
1312.38463	0.93777
1310.33082	0.93724
1308.27701	0.93675
1306.22320	0.93623
1304.16939	0.93565
1302.11558	0.93527
1300.06177	0.93512
1298.00796	0.93493
1295.95415	0.93470
1293.90034	0.93479
1291.84653	0.93511
1289.79272	0.93527
1287.73891	0.93525
1285.68510	0.93522
1283.63129	0.93519
1281.57748	0.93523
1279.52367	0.93525
1277.46986	0.93509
1275.41605	0.93475
1273.36224	0.93435
1271.30843	0.93406
1269.25462	0.93408
1267.20081	0.93416
1265.14700	0.93374
1263.09319	0.93302
1261.03938	0.93268
1258.98557	0.93265
1256.93176	0.93239
1254.87795	0.93183
1252.82414	0.93119
1250.77033	0.93065
1248.71652	0.93033
1246.66271	0.93007
1244.60890	0.92979
1242.55509	0.92951
1240.50128	0.92940
1238.44747	0.92939
1236.39366	0.92912
1234.33985	0.92870
1232.28604	0.92855
1230.23223	0.92874
1228.17842	0.92897
1226.12461	0.92894
1224.07080	0.92877
1222.01699	0.92864
1219.96318	0.92845
1217.90937	0.92831
1215.85556	0.92832
1213.80175	0.92831
1211.74794	0.92812
1209.69413	0.92784
1207.64032	0.92758
1205.58651	0.92730
1203.53270	0.92696
1201.47889	0.92653
1199.42508	0.92606
1197.37127	0.92571
1195.31746	0.92540
1193.26365	0.92482
1191.20984	0.92396
1189.15603	0.92317
1187.10222	0.92244
1185.04841	0.92155
1182.99460	0.92043
1180.94079	0.91907
1178.88698	0.91782
1176.83317	0.91703
1174.77936	0.91641
1172.72555	0.91568
1170.67174	0.91478
1168.61793	0.91377
1166.56412	0.91305
1164.51031	0.91279
1162.45650	0.91275
1160.40269	0.91283
1158.34888	0.91307
1156.29507	0.91346
1154.24126	0.91391
1152.18745	0.91429
1150.13364	0.91444
1148.07983	0.91426
1146.02602	0.91396
1143.97221	0.91369
1141.91840	0.91323
1139.86459	0.91229
1137.81078	0.91076
1135.75697	0.90897
1133.70316	0.90715
1131.64935	0.90526
1129.59554	0.90318
1127.54173	0.90075
1125.48792	0.89801
1123.43411	0.89497
1121.38030	0.89158
1119.32649	0.88785
1117.27268	0.88396
1115.21887	0.88023
1113.16506	0.87690
1111.11125	0.87396
1109.05744	0.87118
1107.00363	0.86848
1104.94982	0.86639
1102.89601	0.86498
1100.84220	0.86377
1098.78839	0.86280
1096.73458	0.86211
1094.68077	0.86154
1092.62696	0.86104
1090.57315	0.86043
1088.51934	0.85960
1086.46553	0.85844
1084.41172	0.85691
1082.35791	0.85555
1080.30410	0.85475
1078.25029	0.85426
1076.19648	0.85396
1074.14267	0.85355
1072.08886	0.85273
1070.03505	0.85179
1067.98124	0.85102
1065.92743	0.85021
1063.87362	0.84908
1061.81981	0.84768
1059.76600	0.84622
1057.71219	0.84460
1055.65838	0.84250
1053.60457	0.83986
1051.55076	0.83689
1049.49695	0.83382
1047.44314	0.83092
1045.38933	0.82815
1043.33552	0.82523
1041.28171	0.82220
1039.22790	0.81940
1037.17409	0.81709
1035.12028	0.81540
1033.06647	0.81460
1031.01265	0.81510
1028.95884	0.81724
1026.90503	0.82052
1024.85122	0.82396
1022.79741	0.82697
1020.74360	0.82952
1018.68979	0.83138
1016.63598	0.83216
1014.58217	0.83189
1012.52836	0.83120
1010.47455	0.83068
1008.42074	0.83074
1006.36693	0.83221
1004.31312	0.83551
1002.25931	0.84011
1000.20550	0.84538
998.15169	0.85088
996.09788	0.85627
994.04407	0.86153
991.99026	0.86667
989.93645	0.87149
987.88264	0.87577
985.82883	0.87960
983.77502	0.88328
981.72121	0.88686
979.66740	0.89014
977.61359	0.89310
975.55978	0.89582
973.50597	0.89832
971.45216	0.90083
969.39835	0.90336
967.34454	0.90554
965.29073	0.90744
963.23692	0.90905
961.18311	0.91029
959.12930	0.91149
957.07549	0.91280
955.02168	0.91390
952.96787	0.91455
950.91406	0.91489
948.86025	0.91497
946.80644	0.91477
944.75263	0.91463
942.69882	0.91458
940.64501	0.91434
938.59120	0.91403
936.53739	0.91376
934.48358	0.91369
932.42977	0.91392
930.37596	0.91405
928.32215	0.91382
926.26834	0.91356
924.21453	0.91311
922.16072	0.91207
920.10691	0.91061
918.05310	0.90896
915.99929	0.90712
913.94548	0.90539
911.89167	0.90435
909.83786	0.90486
907.78405	0.90729
905.73024	0.91113
903.67643	0.91554
901.62262	0.91956
899.56881	0.92259
897.51500	0.92469
895.46119	0.92639
893.40738	0.92816
891.35357	0.92969
889.29976	0.93061
887.24595	0.93114
885.19214	0.93144
883.13833	0.93133
881.08452	0.93028
879.03071	0.92890
876.97690	0.92826
874.92309	0.92855
872.86928	0.92991
870.81547	0.93180
868.76166	0.93267
866.70785	0.93185
864.65404	0.92971
862.60023	0.92690
860.54642	0.92434
858.49261	0.92267
856.43880	0.92263
854.38499	0.92573
852.33118	0.93167
850.27737	0.93724
848.22356	0.94010
846.16975	0.94075
844.11594	0.94065
842.06213	0.94064
840.00832	0.94071
837.95451	0.94082
835.90070	0.94087
833.84689	0.94033
831.79308	0.93955
829.73927	0.93925
827.68546	0.93924
825.63165	0.93947
823.57784	0.93978
821.52403	0.93975
819.47022	0.93944
817.41641	0.93875
815.36260	0.93782
813.30879	0.93699
811.25498	0.93622
809.20117	0.93534
807.14736	0.93428
805.09355	0.93264
803.03974	0.93075
800.98593	0.92938
798.93212	0.92872
796.87831	0.92887
794.82450	0.92922
792.77069	0.92937
790.71688	0.92953
788.66307	0.92934
786.60926	0.92875
784.55545	0.92816
782.50164	0.92774
780.44783	0.92751
778.39402	0.92769
776.34021	0.92824
774.28640	0.92872
772.23259	0.92894
770.17878	0.92921
768.12497	0.92979
766.07116	0.93002
764.01735	0.92920
761.96354	0.92783
759.90973	0.92690
757.85592	0.92653
755.80211	0.92630
753.74830	0.92569
751.69449	0.92439
749.64068	0.92312
747.58687	0.92257
745.53306	0.92216
743.47925	0.92122
741.42544	0.91928
739.37163	0.91562
737.31781	0.90859
735.26400	0.89152
733.21019	0.85413
731.15638	0.80785
729.10257	0.78828
727.04876	0.79910
724.99495	0.80394
722.94114	0.77648
720.88733	0.72222
718.83352	0.68291
716.77971	0.69628
714.72590	0.74974
712.67209	0.80752
710.61828	0.84763
708.56447	0.86934
706.51066	0.88072
704.45685	0.88684
702.40304	0.88964
700.34923	0.89159
698.29542	0.89391
696.24161	0.89601
694.18780	0.89802
692.13399	0.90007
690.08018	0.90155
688.02637	0.90247
685.97256	0.90343
683.91875	0.90455
681.86494	0.90576
679.81113	0.90680
677.75732	0.90727
675.70351	0.90760
673.64970	0.90823
671.59589	0.90903
669.54208	0.90971
667.48827	0.90984
665.43446	0.91006
663.38065	0.91055
661.32684	0.91063
659.27303	0.91002
657.21922	0.90984
655.16541	0.91082
653.11160	0.91157
651.05779	0.91086
649.00398	0.90934
646.95017	0.90867
644.89636	0.90917
642.84255	0.90951
640.78874	0.90914
638.73493	0.90871
636.68112	0.90819
634.62731	0.90740
632.57350	0.90680
630.51969	0.90641
628.46588	0.90637
626.41207	0.90659
624.35826	0.90626
622.30445	0.90570
620.25064	0.90524
618.19683	0.90424
616.14302	0.90323
614.08921	0.90259
612.03540	0.90196
609.98159	0.90211
607.92778	0.90273
605.87397	0.90211
603.82016	0.90090
601.76635	0.90074
599.71254	0.90045
597.65873	0.89894
595.60492	0.89745
593.55111	0.89658
591.49730	0.89597
589.44349	0.89527
587.38968	0.89377
585.33587	0.89181
583.28206	0.89055
581.22825	0.88955
579.17444	0.88808
577.12063	0.88665
575.06682	0.88564
573.01301	0.88397
570.95920	0.88096
568.90539	0.87800
566.85158	0.87650
564.79777	0.87550
562.74396	0.87330
560.69015	0.87026
558.63634	0.86829
556.58253	0.86721
554.52872	0.86534
552.47491	0.86353
550.42110	0.86214
548.36729	0.85922
546.31348	0.85504
544.25967	0.85129
542.20586	0.84810
540.15205	0.84541
538.09824	0.84347
536.04443	0.84207
533.99062	0.84117
531.93681	0.84138
529.88300	0.84299
527.82919	0.84544
525.77538	0.84851
523.72157	0.85153
521.66776	0.85344
519.61395	0.85474
517.56014	0.85647
515.50633	0.85863
513.45252	0.86119
511.39871	0.86390
509.34490	0.86527
507.29109	0.86522
505.23728	0.86599
503.18347	0.86884
501.12966	0.87183
499.07585	0.87295
497.02204	0.87336
494.96823	0.87349
492.91442	0.87203
490.86061	0.86964
488.80680	0.86731
486.75299	0.86384
484.69918	0.85934
482.64537	0.85491
480.59156	0.85035
478.53775	0.84452
476.48394	0.83699
474.43013	0.82969
472.37632	0.82418
470.32251	0.82116
468.26870	0.82076
466.21489	0.82297
464.16108	0.82719
462.10727	0.83256
460.05346	0.83964
457.99965	0.84729
455.94584	0.85225
453.89203	0.85542
451.83822	0.85864
449.78441	0.86151
447.73060	0.86516
445.67679	0.86806
443.62298	0.86667
441.56916	0.86378
439.51535	0.86307
437.46154	0.86460
435.40773	0.86667
433.35392	0.86594
431.30011	0.86420
429.24630	0.86531
427.19249	0.86657
425.13868	0.86501
423.08487	0.86461
421.03106	0.86866
418.97725	0.87149
416.92344	0.86902
414.86963	0.86979
412.81582	0.87515
410.76201	0.87902
408.70820	0.87877
406.65439	0.87902
404.60058	0.88411
402.54677	0.89090
400.49296	0.89544
398.43915	0.89947
