3996.71440	0.99218
3994.66059	0.99229
3992.60678	0.99229
3990.55297	0.99225
3988.49916	0.99213
3986.44535	0.99229
3984.39154	0.99270
3982.33773	0.99289
3980.28392	0.99289
3978.23011	0.99275
3976.17630	0.99266
3974.12249	0.99280
3972.06868	0.99264
3970.01487	0.99236
3967.96106	0.99248
3965.90725	0.99261
3963.85344	0.99236
3961.79963	0.99190
3959.74582	0.99168
3957.69201	0.99197
3955.63820	0.99248
3953.58439	0.99275
3951.53058	0.99275
3949.47677	0.99254
3947.42296	0.99229
3945.36915	0.99213
3943.31534	0.99195
3941.26153	0.99193
3939.20772	0.99213
3937.15391	0.99238
3935.10010	0.99266
3933.04629	0.99277
3930.99248	0.99254
3928.93867	0.99216
3926.88486	0.99195
3924.83105	0.99206
3922.77724	0.99248
3920.72343	0.99273
3918.66962	0.99257
3916.61581	0.99243
3914.56200	0.99264
3912.50819	0.99291
3910.45438	0.99284
3908.40057	0.99227
3906.34676	0.99168
3904.29295	0.99152
3902.23914	0.99163
3900.18533	0.99168
3898.13152	0.99179
3896.07771	0.99193
3894.02390	0.99218
3891.97009	0.99248
3889.91628	0.99273
3887.86247	0.99282
3885.80866	0.99284
3883.75485	0.99307
3881.70104	0.99318
3879.64723	0.99318
3877.59342	0.99346
3875.53961	0.99362
3873.48580	0.99344
3871.43199	0.99321
3869.37818	0.99307
3867.32437	0.99296
3865.27056	0.99275
3863.21675	0.99248
3861.16294	0.99218
3859.10913	0.99202
3857.05531	0.99209
3855.00150	0.99190
3852.94769	0.99165
3850.89388	0.99227
3848.84007	0.99296
3846.78626	0.99316
3844.73245	0.99309
3842.67864	0.99284
3840.62483	0.99250
3838.57102	0.99248
3836.51721	0.99270
3834.46340	0.99300
3832.40959	0.99350
3830.35578	0.99364
3828.30197	0.99321
3826.24816	0.99264
3824.19435	0.99202
3822.14054	0.99159
3820.08673	0.99184
3818.03292	0.99245
3815.97911	0.99291
3813.92530	0.99312
3811.87149	0.99305
3809.81768	0.99296
3807.76387	0.99289
3805.71006	0.99286
3803.65625	0.99273
3801.60244	0.99238
3799.54863	0.99232
3797.49482	0.99248
3795.44101	0.99259
3793.38720	0.99264
3791.33339	0.99282
3789.27958	0.99316
3787.22577	0.99341
3785.17196	0.99337
3783.11815	0.99314
3781.06434	0.99280
3779.01053	0.99248
3776.95672	0.99261
3774.90291	0.99289
3772.84910	0.99270
3770.79529	0.99211
3768.74148	0.99179
3766.68767	0.99197
3764.63386	0.99229
3762.58005	0.99264
3760.52624	0.99280
3758.47243	0.99284
3756.41862	0.99293
3754.36481	0.99302
3752.31100	0.99307
3750.25719	0.99273
3748.20338	0.99243
3746.14957	0.99307
3744.09576	0.99410
3742.04195	0.99405
3739.98814	0.99321
3737.93433	0.99218
3735.88052	0.99165
3733.82671	0.99213
3731.77290	0.99275
3729.71909	0.99302
3727.66528	0.99305
3725.61147	0.99305
3723.55766	0.99289
3721.50385	0.99277
3719.45004	0.99280
3717.39623	0.99257
3715.34242	0.99211
3713.28861	0.99147
3711.23480	0.99083
3709.18099	0.99085
3707.12718	0.99070
3705.07337	0.98985
3703.01956	0.98915
3700.96575	0.98855
3698.91194	0.98771
3696.85813	0.98723
3694.80432	0.98710
3692.75051	0.98692
3690.69670	0.98696
3688.64289	0.98737
3686.58908	0.98773
3684.53527	0.98773
3682.48146	0.98751
3680.42765	0.98726
3678.37384	0.98680
3676.32003	0.98612
3674.26622	0.98610
3672.21241	0.98621
3670.15860	0.98583
3668.10479	0.98546
3666.05098	0.98535
3663.99717	0.98526
3661.94336	0.98521
3659.88955	0.98510
3657.83574	0.98465
3655.78193	0.98392
3653.72812	0.98360
3651.67431	0.98354
3649.62050	0.98317
3647.56669	0.98270
3645.51288	0.98243
3643.45907	0.98218
3641.40526	0.98191
3639.35145	0.98141
3637.29764	0.98062
3635.24383	0.97974
3633.19002	0.97911
3631.13621	0.97897
3629.08240	0.97886
3627.02859	0.97818
3624.97478	0.97760
3622.92097	0.97715
3620.86716	0.97663
3618.81335	0.97638
3616.75954	0.97647
3614.70573	0.97618
3612.65192	0.97544
3610.59811	0.97485
3608.54430	0.97452
3606.49049	0.97391
3604.43668	0.97320
3602.38287	0.97275
3600.32906	0.97243
3598.27525	0.97196
3596.22144	0.97127
3594.16763	0.97064
3592.11382	0.97011
3590.06001	0.96953
3588.00620	0.96886
3585.95239	0.96828
3583.89858	0.96768
3581.84477	0.96699
3579.79095	0.96634
3577.73714	0.96583
3575.68333	0.96543
3573.62952	0.96509
3571.57571	0.96452
3569.52190	0.96398
3567.46809	0.96390
3565.41428	0.96343
3563.36047	0.96252
3561.30666	0.96186
3559.25285	0.96124
3557.19904	0.96028
3555.14523	0.95938
3553.09142	0.95894
3551.03761	0.95856
3548.98380	0.95788
3546.92999	0.95719
3544.87618	0.95660
3542.82237	0.95574
3540.76856	0.95499
3538.71475	0.95471
3536.66094	0.95466
3534.60713	0.95460
3532.55332	0.95429
3530.49951	0.95363
3528.44570	0.95277
3526.39189	0.95216
3524.33808	0.95190
3522.28427	0.95168
3520.23046	0.95111
3518.17665	0.95028
3516.12284	0.94955
3514.06903	0.94945
3512.01522	0.94955
3509.96141	0.94905
3507.90760	0.94827
3505.85379	0.94772
3503.79998	0.94713
3501.74617	0.94652
3499.69236	0.94628
3497.63855	0.94619
3495.58474	0.94574
3493.53093	0.94493
3491.47712	0.94415
3489.42331	0.94365
3487.36950	0.94347
3485.31569	0.94334
3483.26188	0.94280
3481.20807	0.94217
3479.15426	0.94202
3477.10045	0.94180
3475.04664	0.94124
3472.99283	0.94076
3470.93902	0.94048
3468.88521	0.94026
3466.83140	0.93990
3464.77759	0.93923
3462.72378	0.93858
3460.66997	0.93817
3458.61616	0.93795
3456.56235	0.93776
3454.50854	0.93739
3452.45473	0.93694
3450.40092	0.93657
3448.34711	0.93612
3446.29330	0.93556
3444.23949	0.93536
3442.18568	0.93538
3440.13187	0.93491
3438.07806	0.93424
3436.02425	0.93377
3433.97044	0.93360
3431.91663	0.93386
3429.86282	0.93396
3427.80901	0.93358
3425.75520	0.93319
3423.70139	0.93274
3421.64758	0.93209
3419.59377	0.93154
3417.53996	0.93111
3415.48615	0.93079
3413.43234	0.93055
3411.37853	0.93025
3409.32472	0.93010
3407.27091	0.93029
3405.21710	0.93029
3403.16329	0.93006
3401.10948	0.93027
3399.05567	0.93059
3397.00186	0.93046
3394.94805	0.93014
3392.89424	0.92969
3390.84043	0.92909
3388.78662	0.92892
3386.73281	0.92922
3384.67900	0.92946
3382.62519	0.92942
3380.57138	0.92937
3378.51757	0.92944
3376.46376	0.92957
3374.40995	0.92957
3372.35614	0.92939
3370.30233	0.92931
3368.24852	0.92948
3366.19471	0.92978
3364.14090	0.92980
3362.08709	0.92952
3360.03328	0.92937
3357.97947	0.92948
3355.92566	0.92963
3353.87185	0.92959
3351.81804	0.92933
3349.76423	0.92914
3347.71042	0.92922
3345.65661	0.92946
3343.60280	0.92965
3341.54899	0.92969
3339.49518	0.92969
3337.44137	0.92991
3335.38756	0.93010
3333.33375	0.92993
3331.27994	0.92969
3329.22613	0.92978
3327.17232	0.93008
3325.11851	0.93034
3323.06470	0.93031
3321.01089	0.93014
3318.95708	0.93031
3316.90327	0.93076
3314.84946	0.93094
3312.79565	0.93089
3310.74184	0.93100
3308.68803	0.93115
3306.63422	0.93117
3304.58040	0.93107
3302.52659	0.93089
3300.47278	0.93083
3298.41897	0.93081
3296.36516	0.93064
3294.31135	0.93057
3292.25754	0.93087
3290.20373	0.93117
3288.14992	0.93130
3286.09611	0.93158
3284.04230	0.93194
3281.98849	0.93218
3279.93468	0.93244
3277.88087	0.93295
3275.82706	0.93334
3273.77325	0.93358
3271.71944	0.93396
3269.66563	0.93444
3267.61182	0.93480
3265.55801	0.93513
3263.50420	0.93553
3261.45039	0.93599
3259.39658	0.93646
3257.34277	0.93689
3255.28896	0.93730
3253.23515	0.93763
3251.18134	0.93793
3249.12753	0.93827
3247.07372	0.93864
3245.01991	0.93905
3242.96610	0.93964
3240.91229	0.94013
3238.85848	0.94042
3236.80467	0.94078
3234.75086	0.94122
3232.69705	0.94152
3230.64324	0.94200
3228.58943	0.94258
3226.53562	0.94282
3224.48181	0.94291
3222.42800	0.94315
3220.37419	0.94345
3218.32038	0.94380
3216.26657	0.94423
3214.21276	0.94473
3212.15895	0.94521
3210.10514	0.94558
3208.05133	0.94593
3205.99752	0.94628
3203.94371	0.94685
3201.88990	0.94750
3199.83609	0.94781
3197.78228	0.94816
3195.72847	0.94883
3193.67466	0.94931
3191.62085	0.94966
3189.56704	0.95017
3187.51323	0.95074
3185.45942	0.95131
3183.40561	0.95168
3181.35180	0.95161
3179.29799	0.95177
3177.24418	0.95234
3175.19037	0.95275
3173.13656	0.95295
3171.08275	0.95337
3169.02894	0.95407
3166.97513	0.95484
3164.92132	0.95532
3162.86751	0.95554
3160.81370	0.95598
3158.75989	0.95662
3156.70608	0.95693
3154.65227	0.95689
3152.59846	0.95691
3150.54465	0.95726
3148.49084	0.95783
3146.43703	0.95838
3144.38322	0.95872
3142.32941	0.95896
3140.27560	0.95922
3138.22179	0.95942
3136.16798	0.95975
3134.11417	0.96044
3132.06036	0.96126
3130.00655	0.96197
3127.95274	0.96245
3125.89893	0.96268
3123.84512	0.96283
3121.79131	0.96307
3119.73750	0.96314
3117.68369	0.96314
3115.62988	0.96347
3113.57607	0.96392
3111.52226	0.96418
3109.46845	0.96414
3107.41464	0.96390
3105.36083	0.96398
3103.30702	0.96441
3101.25321	0.96474
3099.19940	0.96498
3097.14559	0.96521
3095.09178	0.96521
3093.03797	0.96501
3090.98416	0.96498
3088.93035	0.96518
3086.87654	0.96521
3084.82273	0.96505
3082.76892	0.96492
3080.71511	0.96472
3078.66130	0.96443
3076.60749	0.96434
3074.55368	0.96469
3072.49987	0.96527
3070.44606	0.96578
3068.39225	0.96610
3066.33844	0.96630
3064.28463	0.96663
3062.23082	0.96687
3060.17701	0.96705
3058.12320	0.96745
3056.06939	0.96788
3054.01558	0.96812
3051.96177	0.96841
3049.90796	0.96888
3047.85415	0.96908
3045.80034	0.96897
3043.74653	0.96908
3041.69272	0.96935
3039.63891	0.96926
3037.58510	0.96904
3035.53129	0.96930
3033.47748	0.96984
3031.42367	0.96997
3029.36986	0.96971
3027.31604	0.96964
3025.26223	0.96986
3023.20842	0.96995
3021.15461	0.96971
3019.10080	0.96946
3017.04699	0.96939
3014.99318	0.96921
3012.93937	0.96868
3010.88556	0.96794
3008.83175	0.96743
3006.77794	0.96714
3004.72413	0.96645
3002.67032	0.96529
3000.61651	0.96403
2998.56270	0.96248
2996.50889	0.96031
2994.45508	0.95788
2992.40127	0.95528
2990.34746	0.95198
2988.29365	0.94785
2986.23984	0.94321
2984.18603	0.93810
2982.13222	0.93231
2980.07841	0.92570
2978.02460	0.91821
2975.97079	0.90975
2973.91698	0.90058
2971.86317	0.89084
2969.80936	0.88056
2967.75555	0.86990
2965.70174	0.85981
2963.64793	0.85165
2961.59412	0.84635
2959.54031	0.84436
2957.48650	0.84590
2955.43269	0.85033
2953.37888	0.85658
2951.32507	0.86346
2949.27126	0.86944
2947.21745	0.87325
2945.16364	0.87390
2943.10983	0.87122
2941.05602	0.86606
2939.00221	0.85935
2936.94840	0.85179
2934.89459	0.84435
2932.84078	0.83811
2930.78697	0.83414
2928.73316	0.83280
2926.67935	0.83372
2924.62554	0.83622
2922.57173	0.83940
2920.51792	0.84264
2918.46411	0.84612
2916.41030	0.85051
2914.35649	0.85611
2912.30268	0.86246
2910.24887	0.86892
2908.19506	0.87537
2906.14125	0.88188
2904.08744	0.88836
2902.03363	0.89485
2899.97982	0.90124
2897.92601	0.90717
2895.87220	0.91237
2893.81839	0.91704
2891.76458	0.92115
2889.71077	0.92444
2887.65696	0.92655
2885.60315	0.92706
2883.54934	0.92572
2881.49553	0.92255
2879.44172	0.91791
2877.38791	0.91256
2875.33410	0.90797
2873.28029	0.90548
2871.22648	0.90571
2869.17267	0.90763
2867.11886	0.90912
2865.06505	0.90874
2863.01124	0.90676
2860.95743	0.90488
2858.90362	0.90494
2856.84981	0.90747
2854.79600	0.91184
2852.74219	0.91713
2850.68838	0.92295
2848.63457	0.92967
2846.58076	0.93713
2844.52695	0.94434
2842.47314	0.95036
2840.41933	0.95504
2838.36552	0.95889
2836.31171	0.96232
2834.25790	0.96527
2832.20409	0.96756
2830.15028	0.96915
2828.09647	0.97013
2826.04266	0.97102
2823.98885	0.97190
2821.93504	0.97246
2819.88123	0.97284
2817.82742	0.97337
2815.77361	0.97409
2813.71980	0.97494
2811.66599	0.97591
2809.61218	0.97697
2807.55837	0.97775
2805.50456	0.97818
2803.45075	0.97866
2801.39694	0.97938
2799.34313	0.97999
2797.28932	0.98037
2795.23551	0.98069
2793.18170	0.98093
2791.12789	0.98109
2789.07408	0.98152
2787.02027	0.98238
2784.96646	0.98299
2782.91265	0.98326
2780.85884	0.98349
2778.80503	0.98356
2776.75122	0.98340
2774.69741	0.98329
2772.64360	0.98331
2770.58979	0.98344
2768.53598	0.98358
2766.48217	0.98369
2764.42836	0.98383
2762.37455	0.98406
2760.32074	0.98419
2758.26693	0.98415
2756.21312	0.98415
2754.15931	0.98431
2752.10550	0.98433
2750.05168	0.98399
2747.99787	0.98367
2745.94406	0.98367
2743.89025	0.98399
2741.83644	0.98433
2739.78263	0.98440
2737.72882	0.98422
2735.67501	0.98419
2733.62120	0.98435
2731.56739	0.98435
2729.51358	0.98422
2727.45977	0.98426
2725.40596	0.98467
2723.35215	0.98499
2721.29834	0.98494
2719.24453	0.98510
2717.19072	0.98571
2715.13691	0.98635
2713.08310	0.98662
2711.02929	0.98653
2708.97548	0.98635
2706.92167	0.98623
2704.86786	0.98623
2702.81405	0.98639
2700.76024	0.98671
2698.70643	0.98710
2696.65262	0.98719
2694.59881	0.98705
2692.54500	0.98692
2690.49119	0.98689
2688.43738	0.98692
2686.38357	0.98694
2684.32976	0.98692
2682.27595	0.98687
2680.22214	0.98682
2678.16833	0.98687
2676.11452	0.98705
2674.06071	0.98735
2672.00690	0.98748
2669.95309	0.98755
2667.89928	0.98760
2665.84547	0.98764
2663.79166	0.98778
2661.73785	0.98789
2659.68404	0.98785
2657.63023	0.98778
2655.57642	0.98776
2653.52261	0.98785
2651.46880	0.98810
2649.41499	0.98830
2647.36118	0.98839
2645.30737	0.98848
2643.25356	0.98851
2641.19975	0.98839
2639.14594	0.98819
2637.09213	0.98810
2635.03832	0.98828
2632.98451	0.98844
2630.93070	0.98853
2628.87689	0.98867
2626.82308	0.98846
2624.76927	0.98801
2622.71546	0.98792
2620.66165	0.98801
2618.60784	0.98792
2616.55403	0.98780
2614.50022	0.98760
2612.44641	0.98751
2610.39260	0.98757
2608.33879	0.98744
2606.28498	0.98721
2604.23117	0.98717
2602.17736	0.98723
2600.12355	0.98730
2598.06974	0.98726
2596.01593	0.98730
2593.96212	0.98764
2591.90831	0.98801
2589.85450	0.98801
2587.80069	0.98787
2585.74688	0.98773
2583.69307	0.98771
2581.63926	0.98794
2579.58545	0.98794
2577.53164	0.98755
2575.47783	0.98739
2573.42402	0.98737
2571.37021	0.98730
2569.31640	0.98732
2567.26259	0.98728
2565.20878	0.98726
2563.15497	0.98753
2561.10116	0.98810
2559.04735	0.98833
2556.99354	0.98810
2554.93973	0.98789
2552.88592	0.98780
2550.83211	0.98778
2548.77830	0.98776
2546.72449	0.98755
2544.67068	0.98728
2542.61687	0.98746
2540.56306	0.98773
2538.50925	0.98746
2536.45544	0.98687
2534.40163	0.98628
2532.34782	0.98567
2530.29401	0.98467
2528.24020	0.98335
2526.18639	0.98215
2524.13258	0.98150
2522.07877	0.98132
2520.02496	0.98114
2517.97115	0.98057
2515.91734	0.98005
2513.86353	0.97987
2511.80972	0.98003
2509.75591	0.98060
2507.70210	0.98136
2505.64829	0.98218
2503.59448	0.98311
2501.54067	0.98426
2499.48686	0.98551
2497.43305	0.98644
2495.37924	0.98694
2493.32543	0.98751
2491.27162	0.98860
2489.21781	0.98981
2487.16400	0.99038
2485.11019	0.99054
2483.05638	0.99074
2481.00257	0.99108
2478.94876	0.99159
2476.89495	0.99184
2474.84114	0.99179
2472.78732	0.99179
2470.73351	0.99186
2468.67970	0.99186
2466.62589	0.99195
2464.57208	0.99229
2462.51827	0.99275
2460.46446	0.99284
2458.41065	0.99261
2456.35684	0.99248
2454.30303	0.99252
2452.24922	0.99280
2450.19541	0.99312
2448.14160	0.99305
2446.08779	0.99280
2444.03398	0.99261
2441.98017	0.99254
2439.92636	0.99282
2437.87255	0.99314
2435.81874	0.99305
2433.76493	0.99307
2431.71112	0.99325
2429.65731	0.99325
2427.60350	0.99314
2425.54969	0.99305
2423.49588	0.99296
2421.44207	0.99282
2419.38826	0.99264
2417.33445	0.99257
2415.28064	0.99254
2413.22683	0.99257
2411.17302	0.99289
2409.11921	0.99325
2407.06540	0.99330
2405.01159	0.99307
2402.95778	0.99286
2400.90397	0.99275
2398.85016	0.99275
2396.79635	0.99293
2394.74254	0.99302
2392.68873	0.99280
2390.63492	0.99266
2388.58111	0.99273
2386.52730	0.99277
2384.47349	0.99298
2382.41968	0.99339
2380.36587	0.99362
2378.31206	0.99369
2376.25825	0.99378
2374.20444	0.99396
2372.15063	0.99421
2370.09682	0.99451
2368.04301	0.99481
2365.98920	0.99488
2363.93539	0.99531
2361.88158	0.99605
2359.82777	0.99625
2357.77396	0.99602
2355.72015	0.99527
2353.66634	0.99435
2351.61253	0.99385
2349.55872	0.99360
2347.50491	0.99330
2345.45110	0.99312
2343.39729	0.99355
2341.34348	0.99399
2339.28967	0.99373
2337.23586	0.99328
2335.18205	0.99312
2333.12824	0.99325
2331.07443	0.99334
2329.02062	0.99300
2326.96681	0.99250
2324.91300	0.99227
2322.85919	0.99252
2320.80538	0.99293
2318.75157	0.99291
2316.69776	0.99286
2314.64395	0.99318
2312.59014	0.99369
2310.53633	0.99389
2308.48252	0.99339
2306.42871	0.99268
2304.37490	0.99257
2302.32109	0.99289
2300.26728	0.99298
2298.21347	0.99248
2296.15966	0.99209
2294.10585	0.99254
2292.05204	0.99309
2289.99823	0.99316
2287.94442	0.99314
2285.89061	0.99293
2283.83680	0.99273
2281.78299	0.99318
2279.72918	0.99389
2277.67537	0.99419
2275.62156	0.99419
2273.56775	0.99405
2271.51394	0.99405
2269.46013	0.99412
2267.40632	0.99444
2265.35251	0.99481
2263.29870	0.99417
2261.24489	0.99309
2259.19108	0.99268
2257.13727	0.99282
2255.08346	0.99339
2253.02965	0.99405
2250.97584	0.99437
2248.92203	0.99458
2246.86822	0.99529
2244.81441	0.99651
2242.76060	0.99680
2240.70679	0.99570
2238.65298	0.99470
2236.59917	0.99470
2234.54536	0.99499
2232.49155	0.99520
2230.43774	0.99513
2228.38393	0.99428
2226.33012	0.99344
2224.27631	0.99373
2222.22250	0.99470
2220.16869	0.99538
2218.11488	0.99527
2216.06107	0.99453
2214.00726	0.99437
2211.95345	0.99575
2209.89964	0.99699
2207.84583	0.99653
2205.79202	0.99552
2203.73821	0.99518
2201.68440	0.99573
2199.63059	0.99671
2197.57677	0.99692
2195.52296	0.99646
2193.46915	0.99552
2191.41534	0.99424
2189.36153	0.99421
2187.30772	0.99568
2185.25391	0.99692
2183.20010	0.99759
2181.14629	0.99834
2179.09248	0.99917
2177.03867	0.99949
2174.98486	0.99913
2172.93105	0.99811
2170.87724	0.99703
2168.82343	0.99671
2166.76962	0.99664
2164.71581	0.99596
2162.66200	0.99444
2160.60819	0.99440
2158.55438	0.99722
2156.50057	0.99947
2154.44676	0.99947
2152.39295	0.99855
2150.33914	0.99832
2148.28533	0.99901
2146.23152	0.99869
2144.17771	0.99678
2142.12390	0.99495
2140.07009	0.99419
2138.01628	0.99440
2135.96247	0.99550
2133.90866	0.99697
2131.85485	0.99754
2129.80104	0.99685
2127.74723	0.99561
2125.69342	0.99456
2123.63961	0.99456
2121.58580	0.99531
2119.53199	0.99577
2117.47818	0.99561
2115.42437	0.99474
2113.37056	0.99353
2111.31675	0.99284
2109.26294	0.99296
2107.20913	0.99369
2105.15532	0.99463
2103.10151	0.99511
2101.04770	0.99536
2098.99389	0.99550
2096.94008	0.99552
2094.88627	0.99566
2092.83246	0.99520
2090.77865	0.99437
2088.72484	0.99440
2086.67103	0.99474
2084.61722	0.99428
2082.56341	0.99371
2080.50960	0.99369
2078.45579	0.99412
2076.40198	0.99465
2074.34817	0.99486
2072.29436	0.99458
2070.24055	0.99389
2068.18674	0.99360
2066.13293	0.99428
2064.07912	0.99476
2062.02531	0.99415
2059.97150	0.99353
2057.91769	0.99318
2055.86388	0.99252
2053.81007	0.99250
2051.75626	0.99296
2049.70245	0.99305
2047.64864	0.99371
2045.59483	0.99554
2043.54102	0.99719
2041.48721	0.99706
2039.43340	0.99529
2037.37959	0.99350
2035.32578	0.99383
2033.27197	0.99586
2031.21816	0.99646
2029.16435	0.99538
2027.11054	0.99470
2025.05673	0.99488
2023.00292	0.99563
2020.94911	0.99644
2018.89530	0.99674
2016.84149	0.99596
2014.78768	0.99456
2012.73387	0.99421
2010.68006	0.99486
2008.62625	0.99589
2006.57244	0.99752
2004.51863	0.99844
2002.46482	0.99779
2000.41101	0.99660
1998.35720	0.99589
1996.30339	0.99614
1994.24958	0.99660
1992.19577	0.99616
1990.14196	0.99499
1988.08815	0.99440
1986.03434	0.99575
1983.98053	0.99761
1981.92672	0.99749
1979.87291	0.99637
1977.81910	0.99570
1975.76529	0.99582
1973.71148	0.99713
1971.65767	0.99779
1969.60386	0.99729
1967.55005	0.99719
1965.49624	0.99701
1963.44243	0.99577
1961.38862	0.99437
1959.33481	0.99417
1957.28100	0.99568
1955.22719	0.99754
1953.17338	0.99765
1951.11957	0.99637
1949.06576	0.99511
1947.01195	0.99405
1944.95814	0.99330
1942.90433	0.99286
1940.85052	0.99252
1938.79671	0.99264
1936.74290	0.99273
1934.68909	0.99273
1932.63528	0.99389
1930.58147	0.99580
1928.52766	0.99648
1926.47385	0.99566
1924.42004	0.99481
1922.36623	0.99428
1920.31241	0.99383
1918.25860	0.99394
1916.20479	0.99465
1914.15098	0.99504
1912.09717	0.99467
1910.04336	0.99410
1907.98955	0.99428
1905.93574	0.99490
1903.88193	0.99481
1901.82812	0.99451
1899.77431	0.99435
1897.72050	0.99385
1895.66669	0.99334
1893.61288	0.99350
1891.55907	0.99380
1889.50526	0.99339
1887.45145	0.99275
1885.39764	0.99270
1883.34383	0.99302
1881.29002	0.99334
1879.23621	0.99314
1877.18240	0.99254
1875.12859	0.99248
1873.07478	0.99268
1871.02097	0.99241
1868.96716	0.99174
1866.91335	0.99143
1864.85954	0.99170
1862.80573	0.99218
1860.75192	0.99238
1858.69811	0.99213
1856.64430	0.99186
1854.59049	0.99177
1852.53668	0.99140
1850.48287	0.99070
1848.42906	0.99019
1846.37525	0.99012
1844.32144	0.99033
1842.26763	0.99022
1840.21382	0.98969
1838.16001	0.98933
1836.10620	0.98919
1834.05239	0.98917
1831.99858	0.98905
1829.94477	0.98887
1827.89096	0.98894
1825.83715	0.98899
1823.78334	0.98876
1821.72953	0.98855
1819.67572	0.98839
1817.62191	0.98808
1815.56810	0.98735
1813.51429	0.98621
1811.46048	0.98499
1809.40667	0.98372
1807.35286	0.98220
1805.29905	0.97983
1803.24524	0.97600
1801.19143	0.97080
1799.13762	0.96618
1797.08381	0.96374
1795.03000	0.96330
1792.97619	0.96503
1790.92238	0.96930
1788.86857	0.97394
1786.81476	0.97715
1784.76095	0.97879
1782.70714	0.97963
1780.65333	0.98023
1778.59952	0.98062
1776.54571	0.98069
1774.49190	0.98042
1772.43809	0.97994
1770.38428	0.97924
1768.33047	0.97836
1766.27666	0.97762
1764.22285	0.97703
1762.16904	0.97623
1760.11523	0.97479
1758.06142	0.97266
1756.00761	0.96977
1753.95380	0.96652
1751.89999	0.96234
1749.84618	0.95589
1747.79237	0.94696
1745.73856	0.93560
1743.68475	0.92145
1741.63094	0.90454
1739.57713	0.88446
1737.52332	0.86537
1735.46951	0.84666
1733.41570	0.82120
1731.36189	0.79812
1729.30808	0.78109
1727.25427	0.76749
1725.20046	0.75840
1723.14665	0.75462
1721.09284	0.75675
1719.03903	0.76625
1716.98522	0.78659
1714.93141	0.81184
1712.87760	0.83528
1710.82379	0.85763
1708.76998	0.87842
1706.71617	0.89691
1704.66236	0.91176
1702.60855	0.92109
1700.55474	0.92777
1698.50093	0.93244
1696.44712	0.93444
1694.39331	0.93523
1692.33950	0.93500
1690.28569	0.93411
1688.23188	0.93293
1686.17807	0.93173
1684.12426	0.93031
1682.07045	0.92882
1680.01664	0.92756
1677.96283	0.92634
1675.90902	0.92517
1673.85521	0.92400
1671.80140	0.92298
1669.74759	0.92191
1667.69378	0.92068
1665.63997	0.91941
1663.58616	0.91793
1661.53235	0.91626
1659.47854	0.91493
1657.42473	0.91401
1655.37092	0.91336
1653.31711	0.91283
1651.26330	0.91207
1649.20949	0.91149
1647.15568	0.91113
1645.10187	0.91115
1643.04805	0.91130
1640.99424	0.91134
1638.94043	0.91130
1636.88662	0.91132
1634.83281	0.91149
1632.77900	0.91165
1630.72519	0.91188
1628.67138	0.91216
1626.61757	0.91260
1624.56376	0.91338
1622.50995	0.91441
1620.45614	0.91527
1618.40233	0.91595
1616.34852	0.91662
1614.29471	0.91713
1612.24090	0.91738
1610.18709	0.91725
1608.13328	0.91666
1606.07947	0.91517
1604.02566	0.91233
1601.97185	0.90887
1599.91804	0.90696
1597.86423	0.90740
1595.81042	0.90901
1593.75661	0.91044
1591.70280	0.91102
1589.64899	0.91069
1587.59518	0.90939
1585.54137	0.90686
1583.48756	0.90321
1581.43375	0.89993
1579.37994	0.89884
1577.32613	0.90074
1575.27232	0.90471
1573.21851	0.90744
1571.16470	0.90851
1569.11089	0.90878
1567.05708	0.90855
1565.00327	0.90799
1562.94946	0.90732
1560.89565	0.90621
1558.84184	0.90365
1556.78803	0.90116
1554.73422	0.89925
1552.68041	0.89635
1550.62660	0.89240
1548.57279	0.88769
1546.51898	0.88302
1544.46517	0.87813
1542.41136	0.87259
1540.35755	0.86576
1538.30374	0.85909
1536.24993	0.85454
1534.19612	0.84910
1532.14231	0.84250
1530.08850	0.83701
1528.03469	0.83144
1525.98088	0.82469
1523.92707	0.81816
1521.87326	0.81074
1519.81945	0.80271
1517.76564	0.79568
1515.71183	0.78842
1513.65802	0.78163
1511.60421	0.77519
1509.55040	0.76844
1507.49659	0.75882
1505.44278	0.74662
1503.38897	0.73841
1501.33516	0.73116
1499.28135	0.72172
1497.22754	0.70948
1495.17373	0.69674
1493.11992	0.68618
1491.06611	0.67479
1489.01230	0.66033
1486.95849	0.64720
1484.90468	0.63660
1482.85087	0.62614
1480.79706	0.61464
1478.74325	0.60321
1476.68944	0.59159
1474.63563	0.57867
1472.58182	0.56312
1470.52801	0.54790
1468.47420	0.53585
1466.42039	0.52342
1464.36658	0.50915
1462.31277	0.49720
1460.25896	0.48840
1458.20515	0.47812
1456.15134	0.46534
1454.09753	0.45645
1452.04372	0.44972
1449.98991	0.44193
1447.93610	0.43232
1445.88229	0.42263
1443.82848	0.41463
1441.77467	0.40720
1439.72086	0.39933
1437.66705	0.38901
1435.61324	0.37593
1433.55943	0.36585
1431.50562	0.35771
1429.45181	0.34821
1427.39800	0.33769
1425.34419	0.32774
1423.29038	0.32004
1421.23657	0.31530
1419.18276	0.31137
1417.12895	0.30840
1415.07514	0.30796
1413.02133	0.30950
1410.96752	0.31313
1408.91371	0.31884
1406.85990	0.32636
1404.80609	0.33538
1402.75228	0.34403
1400.69847	0.35092
1398.64466	0.35682
1396.59085	0.36253
1394.53704	0.36887
1392.48323	0.37560
1390.42942	0.38199
1388.37561	0.38826
1386.32180	0.39386
1384.26799	0.39807
1382.21418	0.40191
1380.16037	0.40714
1378.10656	0.41486
1376.05275	0.42547
1373.99894	0.43878
1371.94513	0.45205
1369.89132	0.46376
1367.83751	0.47481
1365.78369	0.48472
1363.72988	0.49381
1361.67607	0.50263
1359.62226	0.51040
1357.56845	0.51752
1355.51464	0.52506
1353.46083	0.53337
1351.40702	0.54244
1349.35321	0.55182
1347.29940	0.56051
1345.24559	0.56745
1343.19178	0.57197
1341.13797	0.57354
1339.08416	0.57236
1337.03035	0.57072
1334.97654	0.57107
1332.92273	0.57393
1330.86892	0.57856
1328.81511	0.58398
1326.76130	0.58951
1324.70749	0.59489
1322.65368	0.60008
1320.59987	0.60491
1318.54606	0.60912
1316.49225	0.61270
1314.43844	0.61597
1312.38463	0.61887
1310.33082	0.62067
1308.27701	0.62028
1306.22320	0.61728
1304.16939	0.61200
1302.11558	0.60477
1300.06177	0.59524
1298.00796	0.58284
1295.95415	0.56760
1293.90034	0.55118
1291.84653	0.53633
1289.79272	0.52563
1287.73891	0.52020
1285.68510	0.51862
1283.63129	0.51774
1281.57748	0.51525
1279.52367	0.51105
1277.46986	0.50629
1275.41605	0.50241
1273.36224	0.50040
1271.30843	0.50032
1269.25462	0.50142
1267.20081	0.50260
1265.14700	0.50313
1263.09319	0.50284
1261.03938	0.50163
1258.98557	0.49954
1256.93176	0.49816
1254.87795	0.50070
1252.82414	0.50890
1250.77033	0.52074
1248.71652	0.53310
1246.66271	0.54493
1244.60890	0.55643
1242.55509	0.56781
1240.50128	0.57926
1238.44747	0.59113
1236.39366	0.60327
1234.33985	0.61532
1232.28604	0.62725
1230.23223	0.63954
1228.17842	0.65346
1226.12461	0.66978
1224.07080	0.68691
1222.01699	0.70199
1219.96318	0.71374
1217.90937	0.72245
1215.85556	0.72863
1213.80175	0.73279
1211.74794	0.73578
1209.69413	0.73853
1207.64032	0.74112
1205.58651	0.74316
1203.53270	0.74468
1201.47889	0.74604
1199.42508	0.74762
1197.37127	0.74986
1195.31746	0.75303
1193.26365	0.75708
1191.20984	0.76183
1189.15603	0.76694
1187.10222	0.77216
1185.04841	0.77714
1182.99460	0.78132
1180.94079	0.78486
1178.88698	0.78806
1176.83317	0.79077
1174.77936	0.79261
1172.72555	0.79334
1170.67174	0.79268
1168.61793	0.79053
1166.56412	0.78768
1164.51031	0.78580
1162.45650	0.78605
1160.40269	0.78775
1158.34888	0.78937
1156.29507	0.78988
1154.24126	0.78897
1152.18745	0.78686
1150.13364	0.78347
1148.07983	0.77779
1146.02602	0.76871
1143.97221	0.75598
1141.91840	0.74073
1139.86459	0.72542
1137.81078	0.71223
1135.75697	0.70144
1133.70316	0.69164
1131.64935	0.68137
1129.59554	0.67027
1127.54173	0.65967
1125.48792	0.65152
1123.43411	0.64723
1121.38030	0.64766
1119.32649	0.65381
1117.27268	0.66592
1115.21887	0.68221
1113.16506	0.69942
1111.11125	0.71430
1109.05744	0.72484
1107.00363	0.73132
1104.94982	0.73512
1102.89601	0.73762
1100.84220	0.73988
1098.78839	0.74232
1096.73458	0.74458
1094.68077	0.74628
1092.62696	0.74698
1090.57315	0.74631
1088.51933	0.74425
1086.46552	0.74010
1084.41171	0.73240
1082.35790	0.72021
1080.30409	0.70312
1078.25028	0.68215
1076.19647	0.66107
1074.14266	0.64567
1072.08885	0.64087
1070.03504	0.64820
1067.98123	0.66468
1065.92742	0.68481
1063.87361	0.70377
1061.81980	0.71917
1059.76599	0.73075
1057.71218	0.73903
1055.65837	0.74478
1053.60456	0.74858
1051.55075	0.75050
1049.49694	0.75040
1047.44313	0.74805
1045.38932	0.74312
1043.33551	0.73587
1041.28170	0.72865
1039.22789	0.72544
1037.17408	0.72850
1035.12027	0.73587
1033.06646	0.74352
1031.01265	0.74931
1028.95884	0.75323
1026.90503	0.75598
1024.85122	0.75837
1022.79741	0.76083
1020.74360	0.76306
1018.68979	0.76526
1016.63598	0.76807
1014.58217	0.77145
1012.52836	0.77485
1010.47455	0.77791
1008.42074	0.78076
1006.36693	0.78354
1004.31312	0.78616
1002.25931	0.78835
1000.20550	0.78984
998.15169	0.79082
996.09788	0.79181
994.04407	0.79298
991.99026	0.79444
989.93645	0.79621
987.88264	0.79787
985.82883	0.79856
983.77502	0.79805
981.72121	0.79682
979.66740	0.79495
977.61359	0.79274
975.55978	0.79068
973.50597	0.78873
971.45216	0.78672
969.39835	0.78428
967.34454	0.78098
965.29073	0.77669
963.23692	0.77234
961.18311	0.76947
959.12930	0.76895
957.07549	0.77073
955.02168	0.77459
952.96787	0.78058
950.91406	0.78817
948.86025	0.79594
946.80644	0.80299
944.75263	0.80956
942.69882	0.81581
940.64501	0.82137
938.59120	0.82604
936.53739	0.83023
934.48358	0.83418
932.42977	0.83749
930.37596	0.84016
928.32215	0.84258
926.26834	0.84471
924.21453	0.84668
922.16072	0.84916
920.10691	0.85251
918.05310	0.85631
915.99929	0.85981
913.94548	0.86256
911.89167	0.86469
909.83786	0.86684
907.78405	0.86964
905.73024	0.87315
903.67643	0.87668
901.62262	0.87993
899.56881	0.88265
897.51500	0.88457
895.46119	0.88599
893.40738	0.88632
891.35357	0.88347
889.29976	0.87130
887.24595	0.83647
885.19214	0.77416
883.13833	0.70288
881.08452	0.63614
879.03071	0.56420
876.97690	0.48440
874.92309	0.41406
872.86928	0.37377
870.81547	0.37710
868.76166	0.42171
866.70785	0.48724
864.65404	0.55271
862.60023	0.60893
860.54642	0.65461
858.49261	0.69150
856.43880	0.72277
854.38499	0.75078
852.33118	0.77254
850.27737	0.77909
848.22356	0.77630
846.16975	0.78538
844.11594	0.80579
842.06213	0.82190
840.00832	0.83094
837.95451	0.83605
835.90070	0.83890
833.84689	0.84107
831.79308	0.84378
829.73927	0.84754
827.68546	0.85247
825.63165	0.85836
823.57784	0.86411
821.52403	0.86862
819.47022	0.87185
817.41641	0.87426
815.36260	0.87615
813.30878	0.87773
811.25497	0.87882
809.20116	0.87892
807.14735	0.87811
805.09354	0.87670
803.03973	0.87404
800.98592	0.87030
798.93211	0.86632
796.87830	0.86288
794.82449	0.86080
792.77068	0.85943
790.71687	0.85743
788.66306	0.85495
786.60925	0.85302
784.55544	0.85214
782.50163	0.85212
780.44782	0.85226
778.39401	0.85226
776.34020	0.85206
774.28639	0.85143
772.23258	0.85067
770.17877	0.85006
768.12496	0.85022
766.07115	0.85194
764.01734	0.85457
761.96353	0.85688
759.90972	0.85753
757.85591	0.85489
755.80210	0.84875
753.74829	0.83938
751.69448	0.82689
749.64067	0.81161
747.58686	0.79501
745.53305	0.78053
743.47924	0.77266
741.42543	0.77498
739.37162	0.78737
737.31781	0.80525
735.26400	0.82219
733.21019	0.83301
731.15638	0.83753
729.10257	0.84029
727.04876	0.84400
724.99495	0.84721
722.94114	0.84695
720.88733	0.83876
718.83352	0.81551
716.77971	0.76819
714.72590	0.69896
712.67209	0.64473
710.61828	0.64496
708.56447	0.68141
706.51066	0.71239
704.45685	0.72905
702.40304	0.73981
700.34923	0.74748
698.29542	0.75161
696.24161	0.75266
694.18780	0.75268
692.13399	0.75391
690.08018	0.75676
688.02637	0.76062
685.97256	0.76452
683.91875	0.76738
681.86494	0.76959
679.81113	0.77176
677.75732	0.77394
675.70351	0.77686
673.64970	0.78091
671.59589	0.78489
669.54208	0.78873
667.48827	0.79365
665.43446	0.79680
663.38065	0.79733
661.32684	0.79581
659.27303	0.79190
657.21922	0.78462
655.16541	0.77378
653.11160	0.76159
651.05779	0.75157
649.00398	0.74506
646.95017	0.73976
644.89636	0.73318
642.84255	0.72502
640.78874	0.71590
638.73493	0.70764
636.68112	0.70310
634.62731	0.70400
632.57350	0.70891
630.51969	0.71435
628.46588	0.71748
626.41207	0.71750
624.35826	0.71519
622.30445	0.71133
620.25064	0.70648
618.19683	0.70100
616.14302	0.69538
614.08921	0.68970
612.03540	0.68473
609.98159	0.68187
607.92778	0.68196
605.87397	0.68663
603.82016	0.69852
601.76635	0.71781
599.71254	0.74051
597.65873	0.76234
595.60492	0.78073
593.55111	0.79490
591.49730	0.80553
589.44349	0.81212
587.38968	0.81574
585.33587	0.81937
583.28206	0.82351
581.22825	0.82680
579.17444	0.82897
577.12063	0.83140
575.06682	0.83447
573.01301	0.83691
570.95920	0.83830
568.90539	0.83977
566.85158	0.84200
564.79777	0.84464
562.74396	0.84674
560.69015	0.84738
558.63634	0.84705
556.58253	0.84643
554.52872	0.84567
552.47491	0.84530
550.42110	0.84471
548.36729	0.84266
546.31348	0.84081
544.25967	0.84081
542.20586	0.84118
540.15205	0.84089
538.09824	0.84079
536.04442	0.84128
533.99061	0.84165
531.93680	0.84205
529.88299	0.84271
527.82918	0.84337
525.77537	0.84401
523.72156	0.84477
521.66775	0.84520
519.61394	0.84483
517.56013	0.84473
515.50632	0.84549
513.45251	0.84635
511.39870	0.84734
509.34489	0.84811
507.29108	0.84756
505.23727	0.84617
503.18346	0.84493
501.12965	0.84382
499.07584	0.84229
497.02203	0.84097
494.96822	0.84072
492.91441	0.83981
490.86060	0.83605
488.80679	0.83094
486.75298	0.82819
484.69917	0.82750
482.64536	0.82596
480.59155	0.82423
478.53774	0.82382
476.48393	0.82416
474.43012	0.82321
472.37631	0.81984
470.32250	0.81688
468.26869	0.81619
466.21488	0.81634
464.16107	0.81679
462.10726	0.81741
460.05345	0.81765
457.99964	0.81782
455.94583	0.81905
453.89202	0.82098
451.83821	0.82196
449.78440	0.82192
447.73059	0.82202
445.67678	0.82202
443.62297	0.82130
441.56916	0.81860
439.51535	0.81341
437.46154	0.80969
435.40773	0.80869
433.35392	0.80729
431.30011	0.80575
429.24630	0.80484
427.19249	0.80366
425.13868	0.80131
423.08487	0.79695
421.03106	0.79203
418.97725	0.78901
416.92344	0.78737
414.86963	0.78605
412.81582	0.78477
410.76201	0.78132
408.70820	0.77607
406.65439	0.77179
404.60058	0.76794
402.54677	0.76257
400.49296	0.75816
398.43915	0.75821
