3996.71440	0.99204
3994.66059	0.99165
3992.60678	0.99121
3990.55297	0.99106
3988.49916	0.99112
3986.44535	0.99106
3984.39154	0.99084
3982.33773	0.99077
3980.28391	0.99113
3978.23010	0.99158
3976.17629	0.99159
3974.12248	0.99134
3972.06867	0.99122
3970.01486	0.99129
3967.96105	0.99143
3965.90724	0.99147
3963.85343	0.99135
3961.79962	0.99116
3959.74581	0.99099
3957.69200	0.99093
3955.63819	0.99089
3953.58438	0.99094
3951.53057	0.99122
3949.47676	0.99139
3947.42295	0.99138
3945.36914	0.99122
3943.31533	0.99078
3941.26152	0.99045
3939.20771	0.99062
3937.15390	0.99102
3935.10009	0.99150
3933.04628	0.99184
3930.99247	0.99164
3928.93866	0.99138
3926.88485	0.99146
3924.83104	0.99158
3922.77723	0.99159
3920.72342	0.99151
3918.66961	0.99132
3916.61580	0.99098
3914.56199	0.99071
3912.50818	0.99079
3910.45437	0.99104
3908.40056	0.99120
3906.34675	0.99133
3904.29294	0.99130
3902.23913	0.99125
3900.18532	0.99173
3898.13151	0.99199
3896.07770	0.99162
3894.02389	0.99135
3891.97008	0.99142
3889.91627	0.99151
3887.86246	0.99175
3885.80865	0.99203
3883.75484	0.99189
3881.70103	0.99167
3879.64722	0.99166
3877.59341	0.99168
3875.53960	0.99169
3873.48579	0.99170
3871.43198	0.99176
3869.37817	0.99176
3867.32436	0.99174
3865.27055	0.99190
3863.21674	0.99191
3861.16293	0.99157
3859.10912	0.99149
3857.05531	0.99173
3855.00150	0.99201
3852.94769	0.99214
3850.89388	0.99192
3848.84007	0.99176
3846.78626	0.99170
3844.73245	0.99164
3842.67864	0.99181
3840.62483	0.99204
3838.57102	0.99188
3836.51721	0.99148
3834.46340	0.99123
3832.40959	0.99135
3830.35578	0.99180
3828.30197	0.99211
3826.24816	0.99197
3824.19435	0.99166
3822.14054	0.99156
3820.08673	0.99166
3818.03292	0.99167
3815.97911	0.99151
3813.92530	0.99141
3811.87149	0.99133
3809.81768	0.99128
3807.76387	0.99151
3805.71006	0.99161
3803.65625	0.99144
3801.60244	0.99136
3799.54863	0.99137
3797.49482	0.99141
3795.44101	0.99144
3793.38720	0.99144
3791.33339	0.99146
3789.27958	0.99153
3787.22577	0.99173
3785.17196	0.99206
3783.11815	0.99212
3781.06434	0.99179
3779.01053	0.99149
3776.95672	0.99147
3774.90291	0.99151
3772.84910	0.99154
3770.79529	0.99146
3768.74148	0.99120
3766.68767	0.99121
3764.63386	0.99166
3762.58005	0.99183
3760.52624	0.99166
3758.47243	0.99183
3756.41862	0.99214
3754.36481	0.99217
3752.31100	0.99228
3750.25719	0.99252
3748.20338	0.99248
3746.14957	0.99240
3744.09576	0.99224
3742.04195	0.99187
3739.98814	0.99152
3737.93433	0.99132
3735.88052	0.99150
3733.82671	0.99219
3731.77290	0.99271
3729.71909	0.99246
3727.66528	0.99170
3725.61147	0.99123
3723.55766	0.99148
3721.50385	0.99164
3719.45004	0.99139
3717.39623	0.99127
3715.34242	0.99099
3713.28861	0.99046
3711.23480	0.99026
3709.18099	0.99019
3707.12718	0.98989
3705.07337	0.98963
3703.01956	0.98930
3700.96575	0.98928
3698.91194	0.98974
3696.85813	0.98980
3694.80432	0.98945
3692.75051	0.98935
3690.69670	0.98930
3688.64289	0.98898
3686.58907	0.98911
3684.53526	0.98956
3682.48145	0.98971
3680.42764	0.98968
3678.37383	0.98970
3676.32002	0.98927
3674.26621	0.98821
3672.21240	0.98769
3670.15859	0.98792
3668.10478	0.98819
3666.05097	0.98790
3663.99716	0.98741
3661.94335	0.98718
3659.88954	0.98736
3657.83573	0.98732
3655.78192	0.98653
3653.72811	0.98565
3651.67430	0.98535
3649.62049	0.98525
3647.56668	0.98474
3645.51287	0.98427
3643.45906	0.98398
3641.40525	0.98369
3639.35144	0.98336
3637.29763	0.98297
3635.24382	0.98255
3633.19001	0.98223
3631.13620	0.98203
3629.08239	0.98163
3627.02858	0.98120
3624.97477	0.98105
3622.92096	0.98071
3620.86715	0.97998
3618.81334	0.97902
3616.75953	0.97837
3614.70572	0.97836
3612.65191	0.97846
3610.59810	0.97810
3608.54429	0.97736
3606.49048	0.97671
3604.43667	0.97624
3602.38286	0.97569
3600.32905	0.97546
3598.27524	0.97574
3596.22143	0.97587
3594.16762	0.97553
3592.11381	0.97485
3590.06000	0.97421
3588.00619	0.97368
3585.95238	0.97290
3583.89857	0.97212
3581.84476	0.97169
3579.79095	0.97155
3577.73714	0.97132
3575.68333	0.97100
3573.62952	0.97096
3571.57571	0.97086
3569.52190	0.97012
3567.46809	0.96881
3565.41428	0.96796
3563.36047	0.96787
3561.30666	0.96772
3559.25285	0.96731
3557.19904	0.96680
3555.14523	0.96610
3553.09142	0.96542
3551.03761	0.96519
3548.98380	0.96509
3546.92999	0.96477
3544.87618	0.96420
3542.82237	0.96333
3540.76856	0.96267
3538.71475	0.96247
3536.66094	0.96214
3534.60713	0.96171
3532.55332	0.96163
3530.49951	0.96145
3528.44570	0.96069
3526.39189	0.95981
3524.33808	0.95934
3522.28427	0.95930
3520.23046	0.95934
3518.17665	0.95895
3516.12284	0.95807
3514.06903	0.95724
3512.01522	0.95686
3509.96141	0.95656
3507.90760	0.95604
3505.85379	0.95567
3503.79998	0.95546
3501.74617	0.95513
3499.69236	0.95479
3497.63855	0.95445
3495.58474	0.95388
3493.53093	0.95336
3491.47712	0.95324
3489.42331	0.95311
3487.36950	0.95278
3485.31569	0.95251
3483.26188	0.95216
3481.20807	0.95170
3479.15426	0.95137
3477.10045	0.95107
3475.04664	0.95069
3472.99283	0.95013
3470.93902	0.94953
3468.88521	0.94927
3466.83140	0.94921
3464.77759	0.94899
3462.72378	0.94885
3460.66997	0.94896
3458.61616	0.94893
3456.56235	0.94840
3454.50854	0.94764
3452.45473	0.94723
3450.40092	0.94719
3448.34711	0.94709
3446.29330	0.94688
3444.23949	0.94656
3442.18568	0.94601
3440.13187	0.94549
3438.07806	0.94530
3436.02425	0.94526
3433.97044	0.94505
3431.91663	0.94462
3429.86282	0.94419
3427.80901	0.94397
3425.75520	0.94395
3423.70139	0.94408
3421.64758	0.94436
3419.59377	0.94430
3417.53996	0.94368
3415.48615	0.94314
3413.43234	0.94317
3411.37853	0.94330
3409.32472	0.94309
3407.27091	0.94291
3405.21710	0.94291
3403.16329	0.94283
3401.10948	0.94258
3399.05567	0.94197
3397.00186	0.94143
3394.94805	0.94152
3392.89424	0.94186
3390.84042	0.94201
3388.78661	0.94199
3386.73280	0.94199
3384.67899	0.94207
3382.62518	0.94192
3380.57137	0.94143
3378.51756	0.94094
3376.46375	0.94071
3374.40994	0.94070
3372.35613	0.94081
3370.30232	0.94106
3368.24851	0.94138
3366.19470	0.94142
3364.14089	0.94113
3362.08708	0.94087
3360.03327	0.94102
3357.97946	0.94155
3355.92565	0.94195
3353.87184	0.94189
3351.81803	0.94124
3349.76422	0.94050
3347.71041	0.94045
3345.65660	0.94071
3343.60279	0.94075
3341.54898	0.94090
3339.49517	0.94112
3337.44136	0.94105
3335.38755	0.94104
3333.33374	0.94109
3331.27993	0.94092
3329.22612	0.94095
3327.17231	0.94135
3325.11850	0.94167
3323.06469	0.94169
3321.01088	0.94161
3318.95707	0.94141
3316.90326	0.94116
3314.84945	0.94129
3312.79564	0.94180
3310.74183	0.94209
3308.68802	0.94192
3306.63421	0.94161
3304.58040	0.94146
3302.52659	0.94146
3300.47278	0.94154
3298.41897	0.94169
3296.36516	0.94179
3294.31135	0.94175
3292.25754	0.94177
3290.20373	0.94207
3288.14992	0.94247
3286.09611	0.94272
3284.04230	0.94284
3281.98849	0.94282
3279.93468	0.94271
3277.88087	0.94284
3275.82706	0.94314
3273.77325	0.94327
3271.71944	0.94326
3269.66563	0.94319
3267.61182	0.94335
3265.55801	0.94376
3263.50420	0.94397
3261.45039	0.94424
3259.39658	0.94478
3257.34277	0.94536
3255.28896	0.94597
3253.23515	0.94636
3251.18134	0.94629
3249.12753	0.94641
3247.07372	0.94692
3245.01991	0.94722
3242.96610	0.94728
3240.91229	0.94759
3238.85848	0.94803
3236.80467	0.94827
3234.75086	0.94847
3232.69705	0.94873
3230.64324	0.94887
3228.58943	0.94907
3226.53562	0.94943
3224.48181	0.94982
3222.42800	0.95034
3220.37419	0.95084
3218.32038	0.95106
3216.26657	0.95128
3214.21276	0.95168
3212.15895	0.95216
3210.10514	0.95260
3208.05133	0.95284
3205.99752	0.95292
3203.94371	0.95315
3201.88990	0.95361
3199.83609	0.95393
3197.78228	0.95401
3195.72847	0.95424
3193.67466	0.95470
3191.62085	0.95532
3189.56704	0.95596
3187.51323	0.95636
3185.45942	0.95653
3183.40561	0.95682
3181.35180	0.95726
3179.29799	0.95750
3177.24418	0.95766
3175.19037	0.95803
3173.13656	0.95840
3171.08275	0.95865
3169.02894	0.95910
3166.97513	0.95985
3164.92132	0.96043
3162.86751	0.96061
3160.81370	0.96091
3158.75989	0.96162
3156.70608	0.96205
3154.65227	0.96200
3152.59846	0.96220
3150.54465	0.96275
3148.49084	0.96326
3146.43703	0.96361
3144.38322	0.96384
3142.32941	0.96407
3140.27560	0.96434
3138.22179	0.96474
3136.16798	0.96523
3134.11417	0.96560
3132.06036	0.96601
3130.00655	0.96632
3127.95274	0.96645
3125.89893	0.96668
3123.84512	0.96699
3121.79131	0.96726
3119.73750	0.96747
3117.68369	0.96769
3115.62988	0.96793
3113.57607	0.96802
3111.52226	0.96815
3109.46845	0.96867
3107.41464	0.96919
3105.36083	0.96941
3103.30702	0.96957
3101.25321	0.96972
3099.19940	0.96980
3097.14559	0.96994
3095.09177	0.96998
3093.03796	0.96988
3090.98415	0.97005
3088.93034	0.97044
3086.87653	0.97076
3084.82272	0.97100
3082.76891	0.97126
3080.71510	0.97144
3078.66129	0.97156
3076.60748	0.97181
3074.55367	0.97207
3072.49986	0.97227
3070.44605	0.97244
3068.39224	0.97258
3066.33843	0.97279
3064.28462	0.97308
3062.23081	0.97353
3060.17700	0.97414
3058.12319	0.97456
3056.06938	0.97451
3054.01557	0.97423
3051.96176	0.97421
3049.90795	0.97463
3047.85414	0.97514
3045.80033	0.97533
3043.74652	0.97532
3041.69271	0.97555
3039.63890	0.97587
3037.58509	0.97590
3035.53128	0.97588
3033.47747	0.97618
3031.42366	0.97660
3029.36985	0.97678
3027.31604	0.97678
3025.26223	0.97663
3023.20842	0.97652
3021.15461	0.97686
3019.10080	0.97749
3017.04699	0.97783
3014.99318	0.97783
3012.93937	0.97775
3010.88556	0.97783
3008.83175	0.97804
3006.77794	0.97810
3004.72413	0.97809
3002.67032	0.97814
3000.61651	0.97812
2998.56270	0.97809
2996.50889	0.97807
2994.45508	0.97792
2992.40127	0.97764
2990.34746	0.97740
2988.29365	0.97718
2986.23984	0.97672
2984.18603	0.97626
2982.13222	0.97614
2980.07841	0.97592
2978.02460	0.97534
2975.97079	0.97482
2973.91698	0.97449
2971.86317	0.97412
2969.80936	0.97360
2967.75555	0.97269
2965.70174	0.97149
2963.64793	0.97041
2961.59412	0.96935
2959.54031	0.96826
2957.48650	0.96743
2955.43269	0.96686
2953.37888	0.96624
2951.32507	0.96541
2949.27126	0.96436
2947.21745	0.96289
2945.16364	0.96059
2943.10983	0.95730
2941.05602	0.95334
2939.00221	0.94878
2936.94840	0.94310
2934.89459	0.93601
2932.84078	0.92765
2930.78697	0.91799
2928.73316	0.90659
2926.67935	0.89280
2924.62554	0.87583
2922.57173	0.85577
2920.51792	0.83438
2918.46411	0.81513
2916.41030	0.80310
2914.35649	0.80258
2912.30268	0.81314
2910.24887	0.82952
2908.19506	0.84613
2906.14125	0.86021
2904.08744	0.87117
2902.03363	0.87929
2899.97982	0.88539
2897.92601	0.89060
2895.87220	0.89565
2893.81839	0.90042
2891.76458	0.90494
2889.71077	0.90970
2887.65696	0.91455
2885.60315	0.91929
2883.54934	0.92428
2881.49553	0.92949
2879.44172	0.93444
2877.38791	0.93883
2875.33410	0.94279
2873.28029	0.94637
2871.22648	0.94906
2869.17267	0.95027
2867.11886	0.95023
2865.06505	0.94910
2863.01124	0.94639
2860.95743	0.94134
2858.90362	0.93288
2856.84981	0.91935
2854.79600	0.89847
2852.74219	0.86945
2850.68838	0.83848
2848.63457	0.82021
2846.58076	0.82529
2844.52695	0.84825
2842.47314	0.87554
2840.41933	0.89856
2838.36552	0.91555
2836.31171	0.92770
2834.25790	0.93647
2832.20409	0.94293
2830.15028	0.94788
2828.09647	0.95198
2826.04266	0.95548
2823.98885	0.95827
2821.93504	0.96041
2819.88123	0.96228
2817.82742	0.96406
2815.77361	0.96561
2813.71980	0.96682
2811.66599	0.96784
2809.61218	0.96864
2807.55837	0.96925
2805.50456	0.96992
2803.45075	0.97077
2801.39693	0.97168
2799.34312	0.97240
2797.28931	0.97289
2795.23550	0.97337
2793.18169	0.97389
2791.12788	0.97450
2789.07407	0.97517
2787.02026	0.97577
2784.96645	0.97622
2782.91264	0.97653
2780.85883	0.97676
2778.80502	0.97701
2776.75121	0.97727
2774.69740	0.97780
2772.64359	0.97849
2770.58978	0.97881
2768.53597	0.97887
2766.48216	0.97909
2764.42835	0.97932
2762.37454	0.97944
2760.32073	0.97957
2758.26692	0.97974
2756.21311	0.98007
2754.15930	0.98057
2752.10549	0.98077
2750.05168	0.98063
2747.99787	0.98052
2745.94406	0.98046
2743.89025	0.98047
2741.83644	0.98057
2739.78263	0.98072
2737.72882	0.98088
2735.67501	0.98108
2733.62120	0.98133
2731.56739	0.98160
2729.51358	0.98169
2727.45977	0.98164
2725.40596	0.98172
2723.35215	0.98186
2721.29834	0.98201
2719.24453	0.98213
2717.19072	0.98222
2715.13691	0.98235
2713.08310	0.98247
2711.02929	0.98258
2708.97548	0.98263
2706.92167	0.98265
2704.86786	0.98279
2702.81405	0.98306
2700.76024	0.98335
2698.70643	0.98355
2696.65262	0.98359
2694.59881	0.98353
2692.54500	0.98350
2690.49119	0.98352
2688.43738	0.98362
2686.38357	0.98387
2684.32976	0.98398
2682.27595	0.98390
2680.22214	0.98394
2678.16833	0.98414
2676.11452	0.98429
2674.06071	0.98419
2672.00690	0.98398
2669.95309	0.98397
2667.89928	0.98409
2665.84547	0.98401
2663.79166	0.98374
2661.73785	0.98350
2659.68404	0.98346
2657.63023	0.98350
2655.57642	0.98348
2653.52261	0.98352
2651.46880	0.98365
2649.41499	0.98377
2647.36118	0.98395
2645.30737	0.98402
2643.25356	0.98370
2641.19975	0.98340
2639.14594	0.98338
2637.09213	0.98337
2635.03832	0.98342
2632.98451	0.98376
2630.93070	0.98428
2628.87689	0.98474
2626.82308	0.98483
2624.76927	0.98464
2622.71546	0.98460
2620.66165	0.98483
2618.60784	0.98516
2616.55403	0.98537
2614.50022	0.98525
2612.44641	0.98502
2610.39260	0.98501
2608.33879	0.98503
2606.28498	0.98524
2604.23117	0.98578
2602.17736	0.98624
2600.12355	0.98635
2598.06974	0.98639
2596.01593	0.98659
2593.96212	0.98673
2591.90831	0.98679
2589.85450	0.98682
2587.80069	0.98668
2585.74688	0.98650
2583.69307	0.98642
2581.63926	0.98635
2579.58545	0.98627
2577.53164	0.98651
2575.47783	0.98694
2573.42402	0.98700
2571.37021	0.98692
2569.31640	0.98712
2567.26259	0.98735
2565.20878	0.98739
2563.15497	0.98748
2561.10116	0.98781
2559.04735	0.98793
2556.99354	0.98760
2554.93973	0.98739
2552.88592	0.98765
2550.83211	0.98794
2548.77830	0.98774
2546.72449	0.98729
2544.67068	0.98721
2542.61687	0.98753
2540.56306	0.98817
2538.50925	0.98890
2536.45544	0.98893
2534.40163	0.98838
2532.34782	0.98803
2530.29401	0.98792
2528.24020	0.98786
2526.18639	0.98804
2524.13258	0.98831
2522.07877	0.98815
2520.02496	0.98799
2517.97115	0.98825
2515.91734	0.98831
2513.86353	0.98817
2511.80972	0.98842
2509.75591	0.98867
2507.70210	0.98842
2505.64828	0.98804
2503.59447	0.98790
2501.54066	0.98813
2499.48685	0.98849
2497.43304	0.98869
2495.37923	0.98889
2493.32542	0.98911
2491.27161	0.98910
2489.21780	0.98889
2487.16399	0.98875
2485.11018	0.98870
2483.05637	0.98861
2481.00256	0.98857
2478.94875	0.98861
2476.89494	0.98870
2474.84113	0.98884
2472.78732	0.98898
2470.73351	0.98913
2468.67970	0.98935
2466.62589	0.98936
2464.57208	0.98897
2462.51827	0.98863
2460.46446	0.98864
2458.41065	0.98879
2456.35684	0.98900
2454.30303	0.98925
2452.24922	0.98918
2450.19541	0.98900
2448.14160	0.98935
2446.08779	0.98982
2444.03398	0.98994
2441.98017	0.98984
2439.92636	0.98962
2437.87255	0.98951
2435.81874	0.98942
2433.76493	0.98912
2431.71112	0.98901
2429.65731	0.98923
2427.60350	0.98940
2425.54969	0.98944
2423.49588	0.98949
2421.44207	0.98963
2419.38826	0.98974
2417.33445	0.98974
2415.28064	0.98969
2413.22683	0.98954
2411.17302	0.98948
2409.11921	0.98973
2407.06540	0.99001
2405.01159	0.99018
2402.95778	0.99020
2400.90397	0.99012
2398.85016	0.99012
2396.79635	0.99005
2394.74254	0.98999
2392.68873	0.99010
2390.63492	0.99021
2388.58111	0.99022
2386.52730	0.99010
2384.47349	0.98994
2382.41968	0.99003
2380.36587	0.99011
2378.31206	0.98966
2376.25825	0.98908
2374.20444	0.98912
2372.15063	0.98948
2370.09682	0.98963
2368.04301	0.98986
2365.98920	0.98994
2363.93539	0.98922
2361.88158	0.98811
2359.82777	0.98761
2357.77396	0.98776
2355.72015	0.98789
2353.66634	0.98824
2351.61253	0.98888
2349.55872	0.98909
2347.50491	0.98909
2345.45110	0.98930
2343.39729	0.98937
2341.34348	0.98899
2339.28967	0.98846
2337.23586	0.98813
2335.18205	0.98814
2333.12824	0.98842
2331.07443	0.98880
2329.02062	0.98883
2326.96681	0.98805
2324.91300	0.98687
2322.85919	0.98621
2320.80538	0.98632
2318.75157	0.98685
2316.69776	0.98751
2314.64395	0.98818
2312.59014	0.98868
2310.53633	0.98883
2308.48252	0.98877
2306.42871	0.98873
2304.37490	0.98871
2302.32109	0.98849
2300.26728	0.98820
2298.21347	0.98818
2296.15966	0.98845
2294.10585	0.98885
2292.05204	0.98899
2289.99823	0.98869
2287.94442	0.98822
2285.89061	0.98788
2283.83680	0.98784
2281.78299	0.98793
2279.72918	0.98831
2277.67537	0.98903
2275.62156	0.98946
2273.56775	0.98924
2271.51394	0.98903
2269.46013	0.98928
2267.40632	0.98915
2265.35251	0.98873
2263.29870	0.98877
2261.24489	0.98892
2259.19108	0.98931
2257.13727	0.98987
2255.08346	0.98983
2253.02965	0.98932
2250.97584	0.98886
2248.92203	0.98858
2246.86822	0.98832
2244.81441	0.98800
2242.76060	0.98813
2240.70679	0.98858
2238.65298	0.98884
2236.59917	0.98938
2234.54536	0.99000
2232.49155	0.98971
2230.43774	0.98891
2228.38393	0.98895
2226.33012	0.98993
2224.27631	0.99076
2222.22250	0.99091
2220.16869	0.99080
2218.11488	0.99046
2216.06107	0.98990
2214.00726	0.98955
2211.95344	0.98879
2209.89963	0.98824
2207.84582	0.98887
2205.79201	0.98968
2203.73820	0.99058
2201.68439	0.99166
2199.63058	0.99160
2197.57677	0.99011
2195.52296	0.98788
2193.46915	0.98616
2191.41534	0.98671
2189.36153	0.98881
2187.30772	0.99065
2185.25391	0.99117
2183.20010	0.98948
2181.14629	0.98760
2179.09248	0.98721
2177.03867	0.98720
2174.98486	0.98772
2172.93105	0.98915
2170.87724	0.98954
2168.82343	0.98785
2166.76962	0.98680
2164.71581	0.98731
2162.66200	0.98706
2160.60819	0.98703
2158.55438	0.98908
2156.50057	0.99090
2154.44676	0.99080
2152.39295	0.99023
2150.33914	0.99026
2148.28533	0.99030
2146.23152	0.99039
2144.17771	0.99100
2142.12390	0.99173
2140.07009	0.99202
2138.01628	0.99199
2135.96247	0.99174
2133.90866	0.99090
2131.85485	0.99039
2129.80104	0.99085
2127.74723	0.99120
2125.69342	0.99078
2123.63961	0.99044
2121.58580	0.99083
2119.53199	0.99102
2117.47818	0.99039
2115.42437	0.98974
2113.37056	0.98920
2111.31675	0.98848
2109.26294	0.98810
2107.20913	0.98831
2105.15532	0.98865
2103.10151	0.98899
2101.04770	0.98951
2098.99389	0.98950
2096.94008	0.98902
2094.88627	0.98933
2092.83246	0.99012
2090.77865	0.98998
2088.72484	0.98920
2086.67103	0.98918
2084.61722	0.98949
2082.56341	0.98920
2080.50960	0.98893
2078.45579	0.98901
2076.40198	0.98896
2074.34817	0.98855
2072.29436	0.98839
2070.24055	0.98834
2068.18674	0.98800
2066.13293	0.98851
2064.07912	0.98957
2062.02531	0.98975
2059.97150	0.98941
2057.91769	0.98896
2055.86388	0.98820
2053.81007	0.98683
2051.75626	0.98561
2049.70245	0.98596
2047.64864	0.98728
2045.59483	0.98826
2043.54102	0.98913
2041.48721	0.99018
2039.43340	0.99001
2037.37959	0.98859
2035.32578	0.98861
2033.27197	0.98983
2031.21816	0.98976
2029.16435	0.98904
2027.11054	0.98854
2025.05673	0.98818
2023.00292	0.98857
2020.94911	0.98948
2018.89530	0.99014
2016.84149	0.99028
2014.78768	0.99020
2012.73387	0.98992
2010.68006	0.98927
2008.62625	0.98886
2006.57244	0.98935
2004.51863	0.98994
2002.46482	0.99023
2000.41101	0.99053
1998.35720	0.99017
1996.30339	0.98973
1994.24958	0.98988
1992.19577	0.98958
1990.14196	0.98886
1988.08815	0.98879
1986.03434	0.98931
1983.98053	0.98907
1981.92672	0.98791
1979.87291	0.98739
1977.81910	0.98750
1975.76529	0.98796
1973.71148	0.98934
1971.65767	0.99120
1969.60386	0.99271
1967.55005	0.99287
1965.49624	0.99234
1963.44243	0.99229
1961.38862	0.99237
1959.33481	0.99256
1957.28100	0.99298
1955.22719	0.99260
1953.17338	0.99126
1951.11957	0.99010
1949.06576	0.98954
1947.01195	0.98920
1944.95814	0.98917
1942.90433	0.99005
1940.85052	0.99113
1938.79671	0.99170
1936.74290	0.99196
1934.68909	0.99157
1932.63528	0.99077
1930.58147	0.99046
1928.52766	0.99033
1926.47385	0.98997
1924.42004	0.98969
1922.36623	0.98937
1920.31242	0.98941
1918.25861	0.98972
1916.20479	0.98948
1914.15098	0.98928
1912.09717	0.98937
1910.04336	0.98971
1907.98955	0.99045
1905.93574	0.99076
1903.88193	0.99023
1901.82812	0.98978
1899.77431	0.98972
1897.72050	0.98968
1895.66669	0.98993
1893.61288	0.99030
1891.55907	0.99031
1889.50526	0.99016
1887.45145	0.99021
1885.39764	0.99055
1883.34383	0.99072
1881.29002	0.99034
1879.23621	0.98988
1877.18240	0.98971
1875.12859	0.98956
1873.07478	0.98941
1871.02097	0.98946
1868.96716	0.98977
1866.91335	0.99009
1864.85954	0.99026
1862.80573	0.99060
1860.75192	0.99110
1858.69811	0.99118
1856.64430	0.99057
1854.59049	0.98997
1852.53668	0.99009
1850.48287	0.99042
1848.42906	0.99036
1846.37525	0.99032
1844.32144	0.99051
1842.26763	0.99049
1840.21382	0.99034
1838.16001	0.99044
1836.10620	0.99060
1834.05239	0.99049
1831.99858	0.99022
1829.94477	0.99007
1827.89096	0.99019
1825.83715	0.99034
1823.78334	0.99007
1821.72953	0.98962
1819.67572	0.98958
1817.62191	0.98992
1815.56810	0.99021
1813.51429	0.99021
1811.46048	0.99008
1809.40667	0.98988
1807.35286	0.98959
1805.29905	0.98930
1803.24524	0.98913
1801.19143	0.98916
1799.13762	0.98920
1797.08381	0.98908
1795.03000	0.98902
1792.97619	0.98905
1790.92238	0.98900
1788.86857	0.98885
1786.81476	0.98870
1784.76095	0.98842
1782.70714	0.98788
1780.65333	0.98742
1778.59952	0.98723
1776.54571	0.98703
1774.49190	0.98680
1772.43809	0.98688
1770.38428	0.98708
1768.33047	0.98691
1766.27666	0.98667
1764.22285	0.98666
1762.16904	0.98650
1760.11523	0.98621
1758.06142	0.98619
1756.00761	0.98598
1753.95380	0.98534
1751.89999	0.98470
1749.84618	0.98430
1747.79237	0.98400
1745.73856	0.98356
1743.68475	0.98285
1741.63094	0.98187
1739.57713	0.98090
1737.52332	0.98020
1735.46951	0.97972
1733.41570	0.97925
1731.36189	0.97856
1729.30808	0.97756
1727.25427	0.97646
1725.20046	0.97544
1723.14665	0.97446
1721.09284	0.97367
1719.03903	0.97309
1716.98522	0.97256
1714.93141	0.97187
1712.87760	0.97135
1710.82379	0.97109
1708.76998	0.97092
1706.71617	0.97083
1704.66236	0.97076
1702.60855	0.97049
1700.55474	0.96971
1698.50093	0.96847
1696.44712	0.96712
1694.39331	0.96568
1692.33950	0.96458
1690.28569	0.96346
1688.23188	0.96225
1686.17807	0.96104
1684.12426	0.95861
1682.07045	0.95590
1680.01664	0.95428
1677.96283	0.95298
1675.90902	0.95136
1673.85521	0.94949
1671.80140	0.94783
1669.74759	0.94592
1667.69378	0.94407
1665.63997	0.94278
1663.58616	0.94122
1661.53235	0.93939
1659.47854	0.93811
1657.42473	0.93727
1655.37092	0.93650
1653.31711	0.93513
1651.26330	0.93403
1649.20949	0.93404
1647.15568	0.93395
1645.10187	0.93344
1643.04806	0.93320
1640.99425	0.93329
1638.94044	0.93376
1636.88663	0.93453
1634.83282	0.93505
1632.77901	0.93550
1630.72520	0.93641
1628.67139	0.93770
1626.61758	0.93902
1624.56377	0.94031
1622.50996	0.94184
1620.45614	0.94321
1618.40233	0.94433
1616.34852	0.94553
1614.29471	0.94663
1612.24090	0.94758
1610.18709	0.94844
1608.13328	0.94910
1606.07947	0.94985
1604.02566	0.95089
1601.97185	0.95191
1599.91804	0.95259
1597.86423	0.95290
1595.81042	0.95314
1593.75661	0.95362
1591.70280	0.95426
1589.64899	0.95481
1587.59518	0.95527
1585.54137	0.95570
1583.48756	0.95593
1581.43375	0.95596
1579.37994	0.95594
1577.32613	0.95584
1575.27232	0.95559
1573.21851	0.95551
1571.16470	0.95569
1569.11089	0.95579
1567.05708	0.95554
1565.00327	0.95523
1562.94946	0.95494
1560.89565	0.95453
1558.84184	0.95385
1556.78803	0.95338
1554.73422	0.95299
1552.68041	0.95253
1550.62660	0.95236
1548.57279	0.95250
1546.51898	0.95285
1544.46517	0.95329
1542.41136	0.95370
1540.35755	0.95406
1538.30374	0.95444
1536.24993	0.95498
1534.19612	0.95583
1532.14231	0.95669
1530.08850	0.95723
1528.03469	0.95782
1525.98088	0.95872
1523.92707	0.95979
1521.87326	0.96073
1519.81945	0.96141
1517.76564	0.96200
1515.71183	0.96282
1513.65802	0.96395
1511.60421	0.96523
1509.55040	0.96648
1507.49659	0.96778
1505.44278	0.96881
1503.38897	0.96934
1501.33516	0.96984
1499.28135	0.97040
1497.22754	0.97098
1495.17373	0.97144
1493.11992	0.97166
1491.06611	0.97164
1489.01230	0.97148
1486.95849	0.97135
1484.90468	0.97098
1482.85087	0.97005
1480.79706	0.96815
1478.74325	0.96359
1476.68944	0.95136
1474.63563	0.92876
1472.58182	0.91022
1470.52801	0.91315
1468.47420	0.92365
1466.42039	0.92729
1464.36658	0.92069
1462.31277	0.91509
1460.25896	0.92040
1458.20515	0.93291
1456.15134	0.94304
1454.09753	0.94649
1452.04372	0.94796
1449.98991	0.94929
1447.93610	0.95030
1445.88229	0.95079
1443.82848	0.95106
1441.77467	0.95133
1439.72086	0.95166
1437.66705	0.95205
1435.61324	0.95213
1433.55943	0.95203
1431.50562	0.95210
1429.45181	0.95213
1427.39800	0.95196
1425.34419	0.95181
1423.29038	0.95172
1421.23657	0.95150
1419.18276	0.95111
1417.12895	0.95058
1415.07514	0.95024
1413.02133	0.95010
1410.96752	0.95006
1408.91371	0.95016
1406.85990	0.95036
1404.80609	0.95046
1402.75228	0.95051
1400.69847	0.95080
1398.64466	0.95117
1396.59085	0.95140
1394.53704	0.95176
1392.48323	0.95214
1390.42942	0.95220
1388.37561	0.95207
1386.32180	0.95188
1384.26799	0.95164
1382.21418	0.95126
1380.16037	0.95092
1378.10656	0.95086
1376.05275	0.95099
1373.99894	0.95126
1371.94513	0.95154
1369.89132	0.95174
1367.83751	0.95210
1365.78370	0.95284
1363.72989	0.95370
1361.67608	0.95435
1359.62227	0.95476
1357.56846	0.95501
1355.51465	0.95517
1353.46084	0.95534
1351.40703	0.95554
1349.35322	0.95562
1347.29941	0.95573
1345.24560	0.95628
1343.19179	0.95703
1341.13798	0.95745
1339.08417	0.95761
1337.03036	0.95775
1334.97655	0.95776
1332.92274	0.95764
1330.86893	0.95758
1328.81512	0.95760
1326.76130	0.95758
1324.70749	0.95749
1322.65368	0.95746
1320.59987	0.95746
1318.54606	0.95742
1316.49225	0.95739
1314.43844	0.95745
1312.38463	0.95744
1310.33082	0.95729
1308.27701	0.95720
1306.22320	0.95722
1304.16939	0.95726
1302.11558	0.95724
1300.06177	0.95710
1298.00796	0.95696
1295.95415	0.95698
1293.90034	0.95712
1291.84653	0.95728
1289.79272	0.95736
1287.73891	0.95725
1285.68510	0.95699
1283.63129	0.95668
1281.57748	0.95647
1279.52367	0.95620
1277.46986	0.95563
1275.41605	0.95480
1273.36224	0.95384
1271.30843	0.95290
1269.25462	0.95207
1267.20081	0.95127
1265.14700	0.95044
1263.09319	0.94944
1261.03938	0.94840
1258.98557	0.94761
1256.93176	0.94693
1254.87795	0.94615
1252.82414	0.94540
1250.77033	0.94482
1248.71652	0.94447
1246.66271	0.94438
1244.60890	0.94437
1242.55509	0.94436
1240.50128	0.94430
1238.44747	0.94421
1236.39366	0.94419
1234.33985	0.94412
1232.28604	0.94397
1230.23223	0.94396
1228.17842	0.94410
1226.12461	0.94414
1224.07080	0.94405
1222.01699	0.94403
1219.96318	0.94410
1217.90937	0.94432
1215.85556	0.94468
1213.80175	0.94500
1211.74794	0.94539
1209.69413	0.94592
1207.64032	0.94641
1205.58651	0.94693
1203.53270	0.94758
1201.47889	0.94827
1199.42508	0.94891
1197.37127	0.94950
1195.31746	0.95000
1193.26365	0.95059
1191.20984	0.95115
1189.15603	0.95139
1187.10222	0.95143
1185.04841	0.95133
1182.99460	0.95089
1180.94079	0.95019
1178.88698	0.94933
1176.83317	0.94819
1174.77936	0.94691
1172.72555	0.94552
1170.67174	0.94405
1168.61793	0.94271
1166.56412	0.94164
1164.51031	0.94092
1162.45650	0.94044
1160.40269	0.93998
1158.34888	0.93940
1156.29507	0.93860
1154.24126	0.93769
1152.18745	0.93701
1150.13364	0.93660
1148.07983	0.93624
1146.02602	0.93603
1143.97221	0.93612
1141.91840	0.93602
1139.86459	0.93521
1137.81078	0.93398
1135.75697	0.93276
1133.70316	0.93139
1131.64935	0.92982
1129.59554	0.92836
1127.54173	0.92708
1125.48792	0.92600
1123.43411	0.92503
1121.38030	0.92385
1119.32649	0.92238
1117.27268	0.92091
1115.21887	0.91959
1113.16506	0.91830
1111.11125	0.91697
1109.05744	0.91565
1107.00363	0.91421
1104.94982	0.91251
1102.89601	0.91051
1100.84220	0.90818
1098.78839	0.90581
1096.73458	0.90381
1094.68077	0.90226
1092.62696	0.90065
1090.57315	0.89854
1088.51934	0.89626
1086.46553	0.89397
1084.41172	0.89153
1082.35791	0.88927
1080.30410	0.88745
1078.25029	0.88584
1076.19648	0.88437
1074.14267	0.88325
1072.08886	0.88254
1070.03505	0.88215
1067.98124	0.88185
1065.92743	0.88144
1063.87362	0.88080
1061.81981	0.87995
1059.76600	0.87917
1057.71219	0.87868
1055.65838	0.87818
1053.60457	0.87731
1051.55076	0.87620
1049.49695	0.87472
1047.44314	0.87272
1045.38933	0.87080
1043.33552	0.86926
1041.28171	0.86786
1039.22790	0.86642
1037.17409	0.86504
1035.12028	0.86384
1033.06647	0.86296
1031.01265	0.86238
1028.95884	0.86195
1026.90503	0.86180
1024.85122	0.86221
1022.79741	0.86333
1020.74360	0.86490
1018.68979	0.86655
1016.63598	0.86835
1014.58217	0.87026
1012.52836	0.87227
1010.47455	0.87483
1008.42074	0.87791
1006.36693	0.88103
1004.31312	0.88426
1002.25931	0.88772
1000.20550	0.89099
998.15169	0.89389
996.09788	0.89681
994.04407	0.89979
991.99026	0.90233
989.93645	0.90434
987.88264	0.90611
985.82883	0.90770
983.77502	0.90922
981.72121	0.91052
979.66740	0.91129
977.61359	0.91184
975.55978	0.91252
973.50597	0.91310
971.45216	0.91357
969.39835	0.91429
967.34454	0.91550
965.29073	0.91723
963.23692	0.91907
961.18311	0.92062
959.12930	0.92194
957.07549	0.92315
955.02168	0.92422
952.96787	0.92535
950.91406	0.92686
948.86025	0.92872
946.80644	0.93050
944.75263	0.93215
942.69882	0.93382
940.64501	0.93525
938.59120	0.93627
936.53739	0.93728
934.48358	0.93842
932.42977	0.93931
930.37596	0.93988
928.32215	0.94041
926.26834	0.94087
924.21453	0.94106
922.16072	0.94135
920.10691	0.94181
918.05310	0.94205
915.99929	0.94205
913.94548	0.94164
911.89167	0.94100
909.83786	0.94069
907.78405	0.94091
905.73024	0.94157
903.67643	0.94229
901.62262	0.94288
899.56881	0.94323
897.51500	0.94329
895.46119	0.94311
893.40738	0.94278
891.35357	0.94274
889.29976	0.94316
887.24595	0.94359
885.19214	0.94352
883.13833	0.94319
881.08452	0.94323
879.03071	0.94361
876.97690	0.94394
874.92309	0.94406
872.86928	0.94396
870.81547	0.94360
868.76166	0.94324
866.70785	0.94302
864.65404	0.94285
862.60023	0.94285
860.54642	0.94274
858.49261	0.94276
856.43880	0.94351
854.38499	0.94450
852.33118	0.94523
850.27737	0.94557
848.22356	0.94518
846.16975	0.94427
844.11594	0.94346
842.06213	0.94258
840.00832	0.94120
837.95451	0.93983
835.90070	0.93879
833.84689	0.93781
831.79308	0.93670
829.73927	0.93529
827.68546	0.93360
825.63165	0.93204
823.57784	0.93112
821.52403	0.93059
819.47022	0.92987
817.41641	0.92922
815.36260	0.92936
813.30879	0.93001
811.25498	0.93053
809.20117	0.93056
807.14736	0.92975
805.09355	0.92847
803.03974	0.92752
800.98593	0.92711
798.93212	0.92667
796.87831	0.92592
794.82450	0.92535
792.77069	0.92514
790.71688	0.92508
788.66307	0.92505
786.60926	0.92462
784.55545	0.92400
782.50164	0.92374
780.44783	0.92349
778.39402	0.92316
776.34021	0.92270
774.28640	0.92215
772.23259	0.92216
770.17878	0.92236
768.12497	0.92189
766.07116	0.92117
764.01735	0.92091
761.96354	0.92089
759.90973	0.92094
757.85592	0.92144
755.80211	0.92219
753.74830	0.92210
751.69449	0.92089
749.64068	0.91990
747.58687	0.91983
745.53306	0.91994
743.47925	0.91961
741.42544	0.91885
739.37163	0.91792
737.31781	0.91619
735.26400	0.91037
733.21019	0.89736
731.15638	0.88392
729.10257	0.88188
727.04876	0.88886
724.99495	0.89242
722.94114	0.88583
720.88733	0.86963
718.83352	0.85406
716.77971	0.85126
714.72590	0.86090
712.67209	0.87453
710.61828	0.88480
708.56447	0.88998
706.51066	0.89248
704.45685	0.89403
702.40304	0.89492
700.34923	0.89583
698.29542	0.89671
696.24161	0.89699
694.18780	0.89705
692.13399	0.89699
690.08018	0.89641
688.02637	0.89577
685.97256	0.89600
683.91875	0.89661
681.86494	0.89666
679.81113	0.89640
677.75732	0.89586
675.70351	0.89524
673.64970	0.89492
671.59589	0.89484
669.54208	0.89513
667.48827	0.89505
665.43446	0.89434
663.38065	0.89399
661.32684	0.89406
659.27303	0.89433
657.21922	0.89434
655.16541	0.89313
653.11160	0.89152
651.05779	0.89137
649.00398	0.89189
646.95017	0.89176
644.89636	0.89111
642.84255	0.89000
640.78874	0.88863
638.73493	0.88743
636.68112	0.88665
634.62731	0.88668
632.57350	0.88715
630.51969	0.88665
628.46588	0.88553
626.41207	0.88530
624.35826	0.88537
622.30445	0.88525
620.25064	0.88589
618.19683	0.88633
616.14302	0.88514
614.08921	0.88368
612.03540	0.88331
609.98159	0.88352
607.92778	0.88356
605.87397	0.88323
603.82016	0.88327
601.76635	0.88418
599.71254	0.88449
597.65873	0.88271
595.60492	0.87993
593.55111	0.87817
591.49730	0.87793
589.44349	0.87800
587.38968	0.87759
585.33587	0.87723
583.28206	0.87725
581.22825	0.87695
579.17444	0.87589
577.12063	0.87475
575.06682	0.87468
573.01301	0.87567
570.95920	0.87652
568.90539	0.87651
566.85158	0.87567
564.79777	0.87465
562.74396	0.87446
560.69015	0.87514
558.63634	0.87519
556.58253	0.87443
554.52872	0.87433
552.47491	0.87482
550.42110	0.87528
548.36729	0.87461
546.31348	0.87266
544.25967	0.87180
542.20586	0.87232
540.15205	0.87257
538.09824	0.87198
536.04443	0.87128
533.99062	0.87125
531.93681	0.87121
529.88300	0.87046
527.82919	0.86986
525.77538	0.87016
523.72157	0.87080
521.66776	0.87107
519.61395	0.87087
517.56014	0.87060
515.50633	0.87080
513.45252	0.87144
511.39871	0.87216
509.34490	0.87277
507.29109	0.87366
505.23728	0.87454
503.18347	0.87423
501.12966	0.87401
499.07585	0.87477
497.02204	0.87438
494.96823	0.87241
492.91442	0.87137
490.86061	0.87220
488.80680	0.87250
486.75299	0.87187
484.69918	0.87177
482.64537	0.87140
480.59156	0.87008
478.53775	0.86882
476.48394	0.86748
474.43013	0.86530
472.37632	0.86338
470.32251	0.86372
468.26870	0.86446
466.21489	0.86416
464.16108	0.86518
462.10727	0.86739
460.05346	0.86893
457.99965	0.86973
455.94584	0.87032
453.89203	0.87095
451.83822	0.87230
449.78441	0.87356
447.73060	0.87258
445.67679	0.87013
443.62298	0.86981
441.56916	0.87240
439.51535	0.87289
437.46154	0.87112
435.40773	0.87134
433.35392	0.87145
431.30011	0.86950
429.24630	0.86993
427.19249	0.87333
425.13868	0.87382
423.08487	0.87096
421.03106	0.87126
418.97725	0.87723
416.92344	0.88096
414.86963	0.88187
412.81582	0.88342
410.76201	0.88125
408.70820	0.87609
406.65439	0.87449
404.60058	0.87629
402.54677	0.87745
400.49296	0.87890
398.43915	0.88214
