3996.70104	1.00040
3994.64724	0.99996
3992.59344	0.99975
3990.53964	1.00003
3988.48583	1.00050
3986.43203	1.00073
3984.37823	1.00088
3982.32442	1.00124
3980.27062	1.00131
3978.21682	1.00070
3976.16301	0.99981
3974.10921	0.99924
3972.05541	0.99923
3970.00160	0.99940
3967.94780	0.99950
3965.89400	0.99968
3963.84019	0.99998
3961.78639	1.00015
3959.73259	1.00019
3957.67878	1.00003
3955.62498	0.99937
3953.57118	0.99877
3951.51737	0.99900
3949.46357	0.99978
3947.40977	0.99996
3945.35596	0.99932
3943.30216	0.99895
3941.24836	0.99915
3939.19455	0.99949
3937.14075	0.99995
3935.08695	1.00021
3933.03315	0.99993
3930.97934	0.99959
3928.92554	0.99982
3926.87174	1.00047
3924.81793	1.00087
3922.76413	1.00086
3920.71033	1.00082
3918.65652	1.00067
3916.60272	1.00006
3914.54892	0.99940
3912.49511	0.99907
3910.44131	0.99890
3908.38751	0.99900
3906.33370	0.99916
3904.27990	0.99907
3902.22610	0.99922
3900.17229	0.99995
3898.11849	1.00048
3896.06469	1.00000
3894.01088	0.99881
3891.95708	0.99805
3889.90328	0.99861
3887.84947	0.99955
3885.79567	0.99989
3883.74187	0.99957
3881.68807	0.99930
3879.63426	0.99929
3877.58046	0.99961
3875.52666	1.00018
3873.47285	1.00036
3871.41905	1.00022
3869.36525	1.00033
3867.31144	1.00044
3865.25764	1.00014
3863.20384	0.99947
3861.15003	0.99936
3859.09623	0.99988
3857.04243	1.00001
3854.98862	0.99930
3852.93482	0.99907
3850.88102	0.99999
3848.82721	1.00058
3846.77341	1.00085
3844.71961	1.00114
3842.66580	1.00120
3840.61200	1.00082
3838.55820	1.00089
3836.50439	1.00113
3834.45059	1.00072
3832.39679	1.00055
3830.34298	1.00060
3828.28918	1.00029
3826.23538	0.99990
3824.18158	0.99988
3822.12777	1.00030
3820.07397	1.00085
3818.02017	1.00113
3815.96636	1.00091
3813.91256	1.00009
3811.85876	0.99971
3809.80495	1.00004
3807.75115	1.00055
3805.69735	1.00086
3803.64354	1.00067
3801.58974	1.00007
3799.53594	0.99951
3797.48213	0.99907
3795.42833	0.99893
3793.37453	0.99904
3791.32072	0.99914
3789.26692	0.99932
3787.21312	0.99935
3785.15931	0.99915
3783.10551	0.99914
3781.05171	0.99939
3778.99790	0.99977
3776.94410	0.99976
3774.89030	0.99937
3772.83650	0.99942
3770.78269	0.99973
3768.72889	0.99928
3766.67509	0.99850
3764.62128	0.99841
3762.56748	0.99916
3760.51368	1.00033
3758.45987	1.00091
3756.40607	1.00062
3754.35227	1.00024
3752.29846	1.00011
3750.24466	1.00025
3748.19086	1.00011
3746.13705	0.99912
3744.08325	0.99782
3742.02945	0.99759
3739.97564	0.99806
3737.92184	0.99890
3735.86804	0.99948
3733.81423	0.99944
3731.76043	0.99994
3729.70663	1.00070
3727.65282	1.00079
3725.59902	0.99990
3723.54522	0.99952
3721.49141	1.00014
3719.43761	1.00041
3717.38381	1.00035
3715.33001	1.00033
3713.27620	1.00041
3711.22240	1.00047
3709.16860	1.00013
3707.11479	0.99983
3705.06099	0.99969
3703.00719	0.99982
3700.95338	1.00067
3698.89958	1.00127
3696.84578	1.00104
3694.79197	1.00072
3692.73817	1.00054
3690.68437	1.00015
3688.63056	0.99994
3686.57676	1.00040
3684.52296	1.00065
3682.46915	1.00018
3680.41535	0.99956
3678.36155	0.99969
3676.30774	1.00006
3674.25394	0.99965
3672.20014	0.99927
3670.14633	0.99929
3668.09253	0.99952
3666.03873	0.99969
3663.98492	0.99962
3661.93112	0.99909
3659.87732	0.99851
3657.82352	0.99881
3655.76971	0.99965
3653.71591	0.99954
3651.66211	0.99878
3649.60830	0.99891
3647.55450	0.99995
3645.50070	1.00027
3643.44689	1.00025
3641.39309	1.00006
3639.33929	0.99944
3637.28548	0.99887
3635.23168	0.99907
3633.17788	0.99976
3631.12407	1.00058
3629.07027	1.00131
3627.01647	1.00103
3624.96266	1.00057
3622.90886	1.00056
3620.85506	1.00088
3618.80125	1.00129
3616.74745	1.00100
3614.69365	1.00024
3612.63984	0.99982
3610.58604	1.00005
3608.53224	1.00055
3606.47844	1.00032
3604.42463	0.99979
3602.37083	0.99973
3600.31703	0.99968
3598.26322	0.99971
3596.20942	1.00031
3594.15562	1.00064
3592.10181	0.99979
3590.04801	0.99818
3587.99421	0.99737
3585.94040	0.99898
3583.88660	1.00069
3581.83280	1.00085
3579.77899	1.00048
3577.72519	0.99987
3575.67139	0.99914
3573.61758	0.99928
3571.56378	0.99969
3569.50998	0.99918
3567.45617	0.99834
3565.40237	0.99842
3563.34857	0.99907
3561.29476	0.99993
3559.24096	1.00053
3557.18716	1.00024
3555.13335	0.99978
3553.07955	1.00012
3551.02575	1.00059
3548.97195	1.00076
3546.91814	1.00113
3544.86434	1.00132
3542.81054	1.00143
3540.75673	1.00156
3538.70293	1.00111
3536.64913	1.00061
3534.59532	1.00066
3532.54152	1.00040
3530.48772	0.99971
3528.43391	0.99943
3526.38011	0.99973
3524.32631	1.00021
3522.27250	1.00036
3520.21870	1.00029
3518.16490	1.00031
3516.11109	1.00048
3514.05729	1.00077
3512.00349	1.00064
3509.94968	1.00008
3507.89588	1.00008
3505.84208	1.00064
3503.78827	1.00087
3501.73447	1.00075
3499.68067	1.00070
3497.62687	1.00052
3495.57306	1.00008
3493.51926	0.99993
3491.46546	0.99996
3489.41165	0.99973
3487.35785	0.99950
3485.30405	0.99929
3483.25024	0.99931
3481.19644	0.99980
3479.14264	1.00004
3477.08883	0.99973
3475.03503	0.99963
3472.98123	1.00019
3470.92742	1.00078
3468.87362	1.00081
3466.81982	1.00071
3464.76601	1.00078
3462.71221	1.00079
3460.65841	1.00073
3458.60460	1.00060
3456.55080	1.00016
3454.49700	0.99991
3452.44319	1.00027
3450.38939	1.00056
3448.33559	1.00048
3446.28178	1.00036
3444.22798	1.00010
3442.17418	0.99973
3440.12038	0.99968
3438.06657	0.99998
3436.01277	1.00002
3433.95897	0.99983
3431.90516	1.00004
3429.85136	1.00036
3427.79756	1.00057
3425.74375	1.00093
3423.68995	1.00092
3421.63615	1.00020
3419.58234	0.99965
3417.52854	0.99978
3415.47474	1.00023
3413.42093	1.00050
3411.36713	1.00055
3409.31333	1.00052
3407.25952	1.00026
3405.20572	0.99982
3403.15192	0.99967
3401.09811	1.00002
3399.04431	1.00061
3396.99051	1.00106
3394.93670	1.00115
3392.88290	1.00114
3390.82910	1.00114
3388.77529	1.00072
3386.72149	0.99976
3384.66769	0.99919
3382.61389	0.99954
3380.56008	1.00015
3378.50628	1.00073
3376.45248	1.00092
3374.39867	1.00067
3372.34487	1.00071
3370.29107	1.00081
3368.23726	1.00047
3366.18346	1.00015
3364.12966	1.00006
3362.07585	0.99990
3360.02205	0.99982
3357.96825	0.99983
3355.91444	0.99984
3353.86064	0.99979
3351.80684	0.99971
3349.75303	0.99988
3347.69923	1.00013
3345.64543	1.00040
3343.59162	1.00071
3341.53782	1.00072
3339.48402	1.00052
3337.43021	1.00043
3335.37641	1.00040
3333.32261	1.00023
3331.26881	0.99977
3329.21500	0.99963
3327.16120	1.00012
3325.10740	1.00078
3323.05359	1.00125
3320.99979	1.00143
3318.94599	1.00129
3316.89218	1.00066
3314.83838	0.99994
3312.78458	0.99973
3310.73077	0.99965
3308.67697	0.99932
3306.62317	0.99919
3304.56936	0.99960
3302.51556	1.00007
3300.46176	1.00005
3298.40795	0.99965
3296.35415	0.99953
3294.30035	1.00007
3292.24654	1.00068
3290.19274	1.00067
3288.13894	1.00051
3286.08513	1.00068
3284.03133	1.00076
3281.97753	1.00060
3279.92372	1.00063
3277.86992	1.00073
3275.81612	1.00053
3273.76232	1.00023
3271.70851	1.00007
3269.65471	1.00016
3267.60091	1.00063
3265.54710	1.00117
3263.49330	1.00113
3261.43950	1.00059
3259.38569	1.00042
3257.33189	1.00068
3255.27809	1.00080
3253.22428	1.00072
3251.17048	1.00071
3249.11668	1.00056
3247.06287	1.00014
3245.00907	0.99980
3242.95527	0.99969
3240.90146	0.99978
3238.84766	1.00007
3236.79386	1.00034
3234.74005	1.00042
3232.68625	1.00025
3230.63245	1.00009
3228.57864	1.00013
3226.52484	0.99991
3224.47104	0.99965
3222.41724	0.99983
3220.36343	1.00013
3218.30963	1.00026
3216.25583	0.99982
3214.20202	0.99909
3212.14822	0.99911
3210.09442	0.99984
3208.04061	1.00047
3205.98681	1.00075
3203.93301	1.00067
3201.87920	1.00037
3199.82540	1.00027
3197.77160	1.00056
3195.71779	1.00063
3193.66399	1.00018
3191.61019	1.00008
3189.55638	1.00028
3187.50258	1.00022
3185.44878	1.00037
3183.39497	1.00050
3181.34117	1.00021
3179.28737	1.00016
3177.23356	1.00032
3175.17976	1.00017
3173.12596	1.00006
3171.07215	1.00035
3169.01835	1.00049
3166.96455	1.00011
3164.91075	0.99956
3162.85694	0.99925
3160.80314	0.99937
3158.74934	0.99986
3156.69553	1.00033
3154.64173	1.00052
3152.58793	1.00030
3150.53412	0.99973
3148.48032	0.99949
3146.42652	0.99977
3144.37271	0.99980
3142.31891	0.99958
3140.26511	0.99966
3138.21130	0.99971
3136.15750	0.99956
3134.10370	0.99981
3132.04989	1.00040
3129.99609	1.00072
3127.94229	1.00055
3125.88848	1.00009
3123.83468	0.99985
3121.78088	1.00014
3119.72707	1.00046
3117.67327	1.00063
3115.61947	1.00078
3113.56566	1.00076
3111.51186	1.00053
3109.45806	1.00031
3107.40426	1.00026
3105.35045	1.00008
3103.29665	0.99986
3101.24285	0.99994
3099.18904	1.00006
3097.13524	1.00005
3095.08144	0.99991
3093.02763	0.99978
3090.97383	1.00013
3088.92003	1.00069
3086.86622	1.00063
3084.81242	1.00032
3082.75862	1.00050
3080.70481	1.00073
3078.65101	1.00063
3076.59721	1.00021
3074.54340	0.99963
3072.48960	0.99942
3070.43580	0.99987
3068.38199	1.00036
3066.32819	1.00025
3064.27439	1.00000
3062.22058	1.00012
3060.16678	1.00020
3058.11298	0.99995
3056.05918	0.99995
3054.00537	1.00057
3051.95157	1.00111
3049.89777	1.00097
3047.84396	1.00059
3045.79016	1.00034
3043.73636	1.00000
3041.68255	0.99979
3039.62875	1.00011
3037.57495	1.00054
3035.52114	1.00057
3033.46734	1.00051
3031.41354	1.00045
3029.35973	1.00022
3027.30593	1.00002
3025.25213	1.00004
3023.19832	1.00007
3021.14452	0.99987
3019.09072	0.99973
3017.03691	0.99993
3014.98311	1.00029
3012.92931	1.00043
3010.87550	1.00033
3008.82170	1.00027
3006.76790	1.00013
3004.71409	1.00012
3002.66029	1.00020
3000.60649	0.99982
2998.55269	0.99936
2996.49888	0.99941
2994.44508	0.99971
2992.39128	0.99991
2990.33747	1.00020
2988.28367	1.00057
2986.22987	1.00068
2984.17606	1.00071
2982.12226	1.00053
2980.06846	1.00005
2978.01465	0.99965
2975.96085	0.99956
2973.90705	0.99976
2971.85324	0.99992
2969.79944	1.00002
2967.74564	1.00014
2965.69183	1.00031
2963.63803	1.00061
2961.58423	1.00056
2959.53042	1.00021
2957.47662	1.00025
2955.42282	1.00070
2953.36901	1.00112
2951.31521	1.00127
2949.26141	1.00133
2947.20761	1.00136
2945.15380	1.00125
2943.10000	1.00105
2941.04620	1.00103
2938.99239	1.00140
2936.93859	1.00159
2934.88479	1.00155
2932.83098	1.00149
2930.77718	1.00124
2928.72338	1.00136
2926.66957	1.00169
2924.61577	1.00145
2922.56197	1.00095
2920.50816	1.00064
2918.45436	1.00053
2916.40056	1.00039
2914.34675	1.00002
2912.29295	0.99977
2910.23915	1.00002
2908.18534	1.00033
2906.13154	1.00031
2904.07774	1.00036
2902.02393	1.00050
2899.97013	1.00044
2897.91633	1.00037
2895.86252	1.00023
2893.80872	1.00003
2891.75492	1.00015
2889.70112	1.00033
2887.64731	1.00040
2885.59351	1.00049
2883.53971	1.00033
2881.48590	1.00012
2879.43210	1.00030
2877.37830	1.00073
2875.32449	1.00107
2873.27069	1.00105
2871.21689	1.00070
2869.16308	1.00071
2867.10928	1.00113
2865.05548	1.00108
2863.00167	1.00069
2860.94787	1.00053
2858.89407	1.00067
2856.84026	1.00113
2854.78646	1.00143
2852.73266	1.00108
2850.67885	1.00076
2848.62505	1.00094
2846.57125	1.00114
2844.51744	1.00102
2842.46364	1.00065
2840.40984	1.00050
2838.35603	1.00062
2836.30223	1.00061
2834.24843	1.00032
2832.19463	0.99992
2830.14082	0.99976
2828.08702	0.99996
2826.03322	1.00023
2823.97941	1.00012
2821.92561	0.99994
2819.87181	1.00029
2817.81800	1.00068
2815.76420	1.00049
2813.71040	1.00009
2811.65659	0.99994
2809.60279	0.99992
2807.54899	0.99989
2805.49518	0.99999
2803.44138	1.00026
2801.38758	1.00052
2799.33377	1.00052
2797.27997	1.00041
2795.22617	1.00058
2793.17236	1.00084
2791.11856	1.00073
2789.06476	1.00042
2787.01095	1.00021
2784.95715	1.00002
2782.90335	1.00002
2780.84955	1.00019
2778.79574	1.00012
2776.74194	0.99990
2774.68814	0.99999
2772.63433	1.00016
2770.58053	1.00005
2768.52673	0.99986
2766.47292	0.99994
2764.41912	1.00025
2762.36532	1.00056
2760.31151	1.00069
2758.25771	1.00086
2756.20391	1.00095
2754.15010	1.00070
2752.09630	1.00059
2750.04250	1.00079
2747.98869	1.00091
2745.93489	1.00076
2743.88109	1.00058
2741.82728	1.00041
2739.77348	1.00008
2737.71968	0.99981
2735.66587	0.99974
2733.61207	0.99993
2731.55827	1.00028
2729.50446	1.00032
2727.45066	1.00020
2725.39686	1.00022
2723.34306	1.00030
2721.28925	1.00047
2719.23545	1.00068
2717.18165	1.00075
2715.12784	1.00076
2713.07404	1.00058
2711.02024	1.00025
2708.96643	1.00015
2706.91263	1.00023
2704.85883	1.00033
2702.80502	1.00035
2700.75122	1.00015
2698.69742	1.00002
2696.64361	1.00025
2694.58981	1.00066
2692.53601	1.00075
2690.48220	1.00040
2688.42840	1.00020
2686.37460	1.00044
2684.32079	1.00071
2682.26699	1.00078
2680.21319	1.00075
2678.15938	1.00075
2676.10558	1.00062
2674.05178	1.00025
2671.99797	0.99994
2669.94417	0.99986
2667.89037	0.99977
2665.83657	0.99966
2663.78276	0.99980
2661.72896	1.00013
2659.67516	1.00033
2657.62135	1.00024
2655.56755	1.00001
2653.51375	0.99992
2651.45994	0.99986
2649.40614	0.99968
2647.35234	0.99978
2645.29853	1.00024
2643.24473	1.00044
2641.19093	1.00016
2639.13712	0.99994
2637.08332	0.99987
2635.02952	0.99932
2632.97571	0.99897
2630.92191	0.99966
2628.86811	1.00028
2626.81430	1.00013
2624.76050	0.99992
2622.70670	0.99978
2620.65289	0.99953
2618.59909	0.99950
2616.54529	0.99978
2614.49149	0.99998
2612.43768	0.99999
2610.38388	0.99993
2608.33008	0.99983
2606.27627	0.99995
2604.22247	1.00025
2602.16867	1.00020
2600.11486	0.99987
2598.06106	0.99962
2596.00726	0.99953
2593.95345	0.99971
2591.89965	0.99996
2589.84585	0.99987
2587.79204	0.99934
2585.73824	0.99896
2583.68444	0.99926
2581.63063	0.99952
2579.57683	0.99924
2577.52303	0.99890
2575.46922	0.99915
2573.41542	0.99978
2571.36162	1.00036
2569.30781	1.00114
2567.25401	1.00151
2565.20021	1.00119
2563.14640	1.00078
2561.09260	1.00044
2559.03880	1.00036
2556.98500	1.00026
2554.93119	0.99989
2552.87739	1.00005
2550.82359	1.00063
2548.76978	1.00064
2546.71598	1.00009
2544.66218	0.99956
2542.60837	0.99959
2540.55457	0.99979
2538.50077	0.99912
2536.44696	0.99861
2534.39316	0.99962
2532.33936	1.00073
2530.28555	1.00064
2528.23175	1.00009
2526.17795	0.99955
2524.12414	0.99901
2522.07034	0.99874
2520.01654	0.99919
2517.96273	0.99992
2515.90893	1.00033
2513.85513	1.00070
2511.80132	1.00083
2509.74752	1.00030
2507.69372	0.99961
2505.63992	0.99943
2503.58611	0.99976
2501.53231	1.00042
2499.47851	1.00066
2497.42470	1.00018
2495.37090	0.99968
2493.31710	0.99979
2491.26329	1.00067
2489.20949	1.00130
2487.15569	1.00112
2485.10188	1.00038
2483.04808	0.99944
2480.99428	0.99930
2478.94047	1.00029
2476.88667	1.00133
2474.83287	1.00165
2472.77906	1.00153
2470.72526	1.00121
2468.67146	1.00113
2466.61765	1.00138
2464.56385	1.00102
2462.51005	1.00014
2460.45624	0.99965
2458.40244	0.99969
2456.34864	0.99995
2454.29483	1.00007
2452.24103	0.99998
2450.18723	0.99976
2448.13343	0.99961
2446.07962	0.99968
2444.02582	0.99976
2441.97202	1.00025
2439.91821	1.00095
2437.86441	1.00057
2435.81061	0.99950
2433.75680	0.99911
2431.70300	0.99950
2429.64920	1.00025
2427.59539	1.00116
2425.54159	1.00168
2423.48779	1.00163
2421.43398	1.00142
2419.38018	1.00109
2417.32638	1.00051
2415.27257	1.00009
2413.21877	1.00017
2411.16497	1.00042
2409.11116	1.00037
2407.05736	1.00023
2405.00356	1.00013
2402.94975	1.00003
2400.89595	1.00023
2398.84215	1.00055
2396.78834	1.00057
2394.73454	1.00031
2392.68074	0.99993
2390.62694	0.99987
2388.57313	1.00041
2386.51933	1.00093
2384.46553	1.00110
2382.41172	1.00121
2380.35792	1.00075
2378.30412	0.99988
2376.25031	1.00017
2374.19651	1.00126
2372.14271	1.00132
2370.08890	1.00058
2368.03510	0.99979
2365.98130	0.99895
2363.92749	0.99882
2361.87369	0.99934
2359.81989	0.99936
2357.76608	0.99920
2355.71228	0.99953
2353.65848	0.99939
2351.60467	0.99894
2349.55087	0.99905
2347.49707	0.99921
2345.44326	0.99903
2343.38946	0.99863
2341.33566	0.99786
2339.28186	0.99735
2337.22805	0.99805
2335.17425	0.99926
2333.12045	0.99981
2331.06664	0.99940
2329.01284	0.99862
2326.95904	0.99800
2324.90523	0.99778
2322.85143	0.99831
2320.79763	0.99922
2318.74382	0.99979
2316.69002	0.99942
2314.63622	0.99844
2312.58241	0.99841
2310.52861	0.99947
2308.47481	1.00033
2306.42100	1.00071
2304.36720	1.00069
2302.31340	1.00008
2300.25959	0.99944
2298.20579	0.99935
2296.15199	0.99991
2294.09818	1.00078
2292.04438	1.00082
2289.99058	0.99982
2287.93677	0.99928
2285.88297	0.99949
2283.82917	0.99934
2281.77537	0.99908
2279.72156	0.99937
2277.66776	0.99985
2275.61396	0.99989
2273.56015	0.99930
2271.50635	0.99865
2269.45255	0.99835
2267.39874	0.99828
2265.34494	0.99877
2263.29114	0.99978
2261.23733	1.00012
2259.18353	0.99980
2257.12973	0.99950
2255.07592	0.99953
2253.02212	0.99979
2250.96832	0.99961
2248.91451	0.99942
2246.86071	0.99977
2244.80691	1.00033
2242.75310	1.00063
2240.69930	1.00063
2238.64550	1.00045
2236.59169	0.99991
2234.53789	0.99971
2232.48409	1.00023
2230.43029	1.00030
2228.37648	0.99951
2226.32268	0.99791
2224.26888	0.99683
2222.21507	0.99808
2220.16127	0.99982
2218.10747	0.99989
2216.05366	0.99959
2213.99986	1.00005
2211.94606	1.00043
2209.89225	1.00119
2207.83845	1.00224
2205.78465	1.00157
2203.73084	0.99994
2201.67704	0.99958
2199.62324	0.99997
2197.56943	1.00008
2195.51563	1.00070
2193.46183	1.00132
2191.40802	1.00095
2189.35422	1.00085
2187.30042	1.00191
2185.24661	1.00302
2183.19281	1.00285
2181.13901	1.00148
2179.08520	0.99876
2177.03140	0.99575
2174.97760	0.99530
2172.92380	0.99686
2170.86999	0.99836
2168.81619	0.99943
2166.76239	1.00087
2164.70858	1.00236
2162.65478	1.00023
2160.60098	0.99682
2158.54717	0.99910
2156.49337	1.00214
2154.43957	1.00160
2152.38576	1.00218
2150.33196	1.00366
2148.27816	1.00321
2146.22435	1.00216
2144.17055	1.00218
2142.11675	1.00165
2140.06294	1.00061
2138.00914	1.00122
2135.95534	1.00233
2133.90153	1.00262
2131.84773	1.00237
2129.79393	1.00192
2127.74012	1.00164
2125.68632	1.00170
2123.63252	1.00194
2121.57871	1.00215
2119.52491	1.00269
2117.47111	1.00296
2115.41731	1.00241
2113.36350	1.00221
2111.30970	1.00201
2109.25590	1.00108
2107.20209	1.00115
2105.14829	1.00216
2103.09449	1.00142
2101.04068	0.99956
2098.98688	0.99938
2096.93308	1.00076
2094.87927	1.00235
2092.82547	1.00312
2090.77167	1.00201
2088.71786	1.00084
2086.66406	1.00126
2084.61026	1.00090
2082.55645	0.99946
2080.50265	0.99912
2078.44885	0.99972
2076.39504	1.00044
2074.34124	1.00063
2072.28744	1.00027
2070.23363	1.00044
2068.17983	1.00013
2066.12603	0.99883
2064.07223	0.99876
2062.01842	0.99984
2059.96462	0.99998
2057.91082	0.99938
2055.85701	0.99907
2053.80321	0.99922
2051.74941	1.00003
2049.69560	1.00127
2047.64180	1.00170
2045.58800	1.00056
2043.53419	0.99952
2041.48039	1.00001
2039.42659	1.00109
2037.37278	1.00171
2035.31898	1.00215
2033.26518	1.00292
2031.21137	1.00303
2029.15757	1.00280
2027.10377	1.00236
2025.04996	1.00074
2022.99616	0.99961
2020.94236	1.00033
2018.88855	1.00242
2016.83475	1.00272
2014.78095	0.99932
2012.72714	0.99596
2010.67334	0.99445
2008.61954	0.99420
2006.56574	0.99550
2004.51193	0.99734
2002.45813	0.99823
2000.40433	0.99820
1998.35052	0.99864
1996.29672	0.99957
1994.24292	0.99903
1992.18911	0.99679
1990.13531	0.99612
1988.08151	0.99854
1986.02770	1.00091
1983.97390	1.00088
1981.92010	0.99887
1979.86629	0.99712
1977.81249	0.99852
1975.75869	1.00143
1973.70488	1.00247
1971.65108	1.00188
1969.59728	1.00120
1967.54347	1.00159
1965.48967	1.00120
1963.43587	1.00006
1961.38206	1.00061
1959.32826	1.00068
1957.27446	0.99928
1955.22066	0.99928
1953.16685	1.00146
1951.11305	1.00375
1949.05925	1.00402
1947.00544	1.00293
1944.95164	1.00193
1942.89784	1.00123
1940.84403	1.00169
1938.79023	1.00253
1936.73643	1.00138
1934.68262	0.99904
1932.62882	0.99817
1930.57502	0.99865
1928.52121	0.99899
1926.46741	0.99944
1924.41361	1.00052
1922.35980	1.00096
1920.30600	1.00062
1918.25220	1.00120
1916.19839	1.00195
1914.14459	1.00133
1912.09079	1.00042
1910.03698	1.00020
1907.98318	1.00034
1905.92938	1.00087
1903.87557	1.00146
1901.82177	1.00131
1899.76797	1.00057
1897.71417	0.99980
1895.66036	0.99941
1893.60656	0.99937
1891.55276	0.99942
1889.49895	0.99946
1887.44515	0.99938
1885.39135	0.99934
1883.33754	0.99976
1881.28374	1.00057
1879.22994	1.00100
1877.17613	1.00103
1875.12233	1.00102
1873.06853	1.00098
1871.01472	1.00093
1868.96092	1.00080
1866.90712	1.00064
1864.85331	1.00061
1862.79951	1.00064
1860.74571	1.00072
1858.69190	1.00104
1856.63810	1.00130
1854.58430	1.00122
1852.53049	1.00117
1850.47669	1.00135
1848.42289	1.00166
1846.36908	1.00173
1844.31528	1.00105
1842.26148	1.00028
1840.20768	1.00030
1838.15387	1.00071
1836.10007	1.00117
1834.04627	1.00160
1831.99246	1.00166
1829.93866	1.00125
1827.88486	1.00087
1825.83105	1.00088
1823.77725	1.00108
1821.72345	1.00101
1819.66964	1.00087
1817.61584	1.00080
1815.56204	1.00067
1813.50823	1.00071
1811.45443	1.00111
1809.40063	1.00139
1807.34682	1.00105
1805.29302	1.00072
1803.23922	1.00088
1801.18541	1.00121
1799.13161	1.00159
1797.07781	1.00202
1795.02400	1.00193
1792.97020	1.00120
1790.91640	1.00075
1788.86260	1.00083
1786.80879	1.00113
1784.75499	1.00171
1782.70119	1.00206
1780.64738	1.00158
1778.59358	1.00068
1776.53978	1.00015
1774.48597	1.00010
1772.43217	1.00036
1770.37837	1.00042
1768.32456	1.00025
1766.27076	1.00027
1764.21696	1.00030
1762.16315	1.00021
1760.10935	1.00048
1758.05555	1.00115
1756.00174	1.00165
1753.94794	1.00168
1751.89414	1.00170
1749.84033	1.00186
1747.78653	1.00169
1745.73273	1.00153
1743.67892	1.00153
1741.62512	1.00145
1739.57132	1.00142
1737.51751	1.00148
1735.46371	1.00138
1733.40991	1.00098
1731.35611	1.00050
1729.30230	1.00053
1727.24850	1.00102
1725.19470	1.00139
1723.14089	1.00140
1721.08709	1.00107
1719.03329	1.00075
1716.97948	1.00077
1714.92568	1.00084
1712.87188	1.00086
1710.81807	1.00105
1708.76427	1.00123
1706.71047	1.00100
1704.65666	1.00079
1702.60286	1.00092
1700.54906	1.00092
1698.49525	1.00107
1696.44145	1.00134
1694.38765	1.00135
1692.33384	1.00133
1690.28004	1.00141
1688.22624	1.00139
1686.17243	1.00117
1684.11863	1.00104
1682.06483	1.00116
1680.01103	1.00140
1677.95722	1.00157
1675.90342	1.00156
1673.84962	1.00148
1671.79581	1.00134
1669.74201	1.00126
1667.68821	1.00130
1665.63440	1.00121
1663.58060	1.00096
1661.52680	1.00093
1659.47299	1.00143
1657.41919	1.00190
1655.36539	1.00212
1653.31158	1.00256
1651.25778	1.00243
1649.20398	1.00174
1647.15017	1.00131
1645.09637	1.00136
1643.04257	1.00150
1640.98876	1.00161
1638.93496	1.00166
1636.88116	1.00166
1634.82735	1.00147
1632.77355	1.00118
1630.71975	1.00098
1628.66594	1.00086
1626.61214	1.00077
1624.55834	1.00070
1622.50454	1.00075
1620.45073	1.00083
1618.39693	1.00083
1616.34313	1.00099
1614.28932	1.00136
1612.23552	1.00152
1610.18172	1.00138
1608.12791	1.00112
1606.07411	1.00105
1604.02031	1.00123
1601.96650	1.00156
1599.91270	1.00180
1597.85890	1.00177
1595.80509	1.00159
1593.75129	1.00146
1591.69749	1.00129
1589.64368	1.00095
1587.58988	1.00076
1585.53608	1.00078
1583.48227	1.00081
1581.42847	1.00103
1579.37467	1.00127
1577.32086	1.00105
1575.26706	1.00054
1573.21326	1.00054
1571.15945	1.00090
1569.10565	1.00112
1567.05185	1.00072
1564.99805	1.00036
1562.94424	1.00060
1560.89044	1.00108
1558.83664	1.00112
1556.78283	1.00058
1554.72903	1.00033
1552.67523	1.00059
1550.62142	1.00086
1548.56762	1.00079
1546.51382	1.00082
1544.46001	1.00092
1542.40621	1.00079
1540.35241	1.00069
1538.29860	1.00050
1536.24480	1.00056
1534.19100	1.00083
1532.13719	1.00081
1530.08339	1.00064
1528.02959	1.00065
1525.97578	1.00062
1523.92198	1.00056
1521.86818	1.00061
1519.81437	1.00044
1517.76057	1.00024
1515.70677	1.00031
1513.65297	1.00033
1511.59916	1.00039
1509.54536	1.00058
1507.49156	1.00048
1505.43775	1.00065
1503.38395	1.00113
1501.33015	1.00130
1499.27634	1.00126
1497.22254	1.00108
1495.16874	1.00077
1493.11493	1.00068
1491.06113	1.00099
1489.00733	1.00111
1486.95352	1.00075
1484.89972	1.00068
1482.84592	1.00088
1480.79211	1.00104
1478.73831	1.00105
1476.68451	1.00092
1474.63070	1.00089
1472.57690	1.00119
1470.52310	1.00139
1468.46929	1.00132
1466.41549	1.00129
1464.36169	1.00136
1462.30788	1.00140
1460.25408	1.00130
1458.20028	1.00123
1456.14648	1.00164
1454.09267	1.00183
1452.03887	1.00151
1449.98507	1.00126
1447.93126	1.00118
1445.87746	1.00102
1443.82366	1.00097
1441.76985	1.00101
1439.71605	1.00096
1437.66225	1.00084
1435.60844	1.00104
1433.55464	1.00135
1431.50084	1.00143
1429.44703	1.00145
1427.39323	1.00129
1425.33943	1.00114
1423.28562	1.00140
1421.23182	1.00167
1419.17802	1.00167
1417.12421	1.00179
1415.07041	1.00188
1413.01661	1.00176
1410.96280	1.00168
1408.90900	1.00170
1406.85520	1.00160
1404.80139	1.00136
1402.74759	1.00102
1400.69379	1.00078
1398.63999	1.00085
1396.58618	1.00089
1394.53238	1.00066
1392.47858	1.00068
1390.42477	1.00094
1388.37097	1.00104
1386.31717	1.00100
1384.26336	1.00120
1382.20956	1.00144
1380.15576	1.00133
1378.10195	1.00125
1376.04815	1.00137
1373.99435	1.00133
1371.94054	1.00125
1369.88674	1.00128
1367.83294	1.00127
1365.77913	1.00112
1363.72533	1.00095
1361.67153	1.00110
1359.61772	1.00130
1357.56392	1.00110
1355.51012	1.00093
1353.45631	1.00113
1351.40251	1.00129
1349.34871	1.00122
1347.29491	1.00115
1345.24110	1.00123
1343.18730	1.00128
1341.13350	1.00109
1339.07969	1.00096
1337.02589	1.00097
1334.97209	1.00084
1332.91828	1.00059
1330.86448	1.00040
1328.81068	1.00065
1326.75687	1.00127
1324.70307	1.00154
1322.64927	1.00145
1320.59546	1.00141
1318.54166	1.00128
1316.48786	1.00096
1314.43405	1.00082
1312.38025	1.00082
1310.32645	1.00082
1308.27264	1.00092
1306.21884	1.00103
1304.16504	1.00090
1302.11123	1.00064
1300.05743	1.00062
1298.00363	1.00091
1295.94982	1.00106
1293.89602	1.00077
1291.84222	1.00046
1289.78842	1.00047
1287.73461	1.00051
1285.68081	1.00031
1283.62701	1.00000
1281.57320	0.99971
1279.51940	0.99962
1277.46560	0.99986
1275.41179	1.00019
1273.35799	1.00028
1271.30419	1.00015
1269.25038	0.99994
1267.19658	0.99975
1265.14278	0.99972
1263.08897	0.99960
1261.03517	0.99925
1258.98137	0.99919
1256.92756	0.99959
1254.87376	0.99994
1252.81996	0.99976
1250.76615	0.99913
1248.71235	0.99851
1246.65855	0.99845
1244.60474	0.99871
1242.55094	0.99848
1240.49714	0.99777
1238.44334	0.99706
1236.38953	0.99662
1234.33573	0.99647
1232.28193	0.99640
1230.22812	0.99645
1228.17432	0.99631
1226.12052	0.99552
1224.06671	0.99438
1222.01291	0.99345
1219.95911	0.99272
1217.90530	0.99195
1215.85150	0.99110
1213.79770	0.99014
1211.74389	0.98904
1209.69009	0.98777
1207.63629	0.98645
1205.58248	0.98547
1203.52868	0.98480
1201.47488	0.98408
1199.42107	0.98329
1197.36727	0.98276
1195.31347	0.98258
1193.25966	0.98235
1191.20586	0.98177
1189.15206	0.98116
1187.09825	0.98085
1185.04445	0.98090
1182.99065	0.98100
1180.93685	0.98073
1178.88304	0.98035
1176.82924	0.98013
1174.77544	0.97959
1172.72163	0.97868
1170.66783	0.97794
1168.61403	0.97724
1166.56022	0.97624
1164.50642	0.97531
1162.45262	0.97490
1160.39881	0.97509
1158.34501	0.97579
1156.29121	0.97639
1154.23740	0.97613
1152.18360	0.97542
1150.12980	0.97493
1148.07599	0.97471
1146.02219	0.97433
1143.96839	0.97348
1141.91458	0.97235
1139.86078	0.97105
1137.80698	0.96947
1135.75317	0.96792
1133.69937	0.96688
1131.64557	0.96618
1129.59176	0.96522
1127.53796	0.96378
1125.48416	0.96223
1123.43036	0.96079
1121.37655	0.95946
1119.32275	0.95819
1117.26895	0.95674
1115.21514	0.95510
1113.16134	0.95358
1111.10754	0.95198
1109.05373	0.95022
1106.99993	0.94855
1104.94613	0.94683
1102.89232	0.94494
1100.83852	0.94287
1098.78472	0.94072
1096.73091	0.93887
1094.67711	0.93756
1092.62331	0.93634
1090.56950	0.93460
1088.51570	0.93294
1086.46190	0.93186
1084.40809	0.93081
1082.35429	0.92987
1080.30049	0.92981
1078.24668	0.93069
1076.19288	0.93225
1074.13908	0.93420
1072.08528	0.93609
1070.03147	0.93775
1067.97767	0.93956
1065.92387	0.94171
1063.87006	0.94404
1061.81626	0.94651
1059.76246	0.94872
1057.70865	0.95054
1055.65485	0.95266
1053.60105	0.95506
1051.54724	0.95727
1049.49344	0.95927
1047.43964	0.96125
1045.38583	0.96305
1043.33203	0.96442
1041.27823	0.96565
1039.22442	0.96686
1037.17062	0.96814
1035.11682	0.96959
1033.06301	0.97091
1031.00921	0.97210
1028.95541	0.97322
1026.90160	0.97408
1024.84780	0.97484
1022.79400	0.97575
1020.74019	0.97675
1018.68639	0.97770
1016.63259	0.97841
1014.57879	0.97910
1012.52498	0.98013
1010.47118	0.98093
1008.41738	0.98111
1006.36357	0.98129
1004.30977	0.98162
1002.25597	0.98196
1000.20216	0.98252
998.14836	0.98315
996.09456	0.98365
994.04075	0.98399
991.98695	0.98420
989.93315	0.98460
987.87934	0.98538
985.82554	0.98613
983.77174	0.98665
981.71793	0.98710
979.66413	0.98744
977.61033	0.98759
975.55652	0.98783
973.50272	0.98843
971.44892	0.98881
969.39511	0.98876
967.34131	0.98875
965.28751	0.98896
963.23371	0.98943
961.17990	0.99008
959.12610	0.99070
957.07230	0.99096
955.01849	0.99068
952.96469	0.99030
950.91089	0.99042
948.85708	0.99122
946.80328	0.99245
944.74948	0.99335
942.69567	0.99355
940.64187	0.99364
938.58807	0.99399
936.53426	0.99409
934.48046	0.99353
932.42666	0.99317
930.37285	0.99385
928.31905	0.99464
926.26525	0.99469
924.21144	0.99464
922.15764	0.99455
920.10384	0.99409
918.05003	0.99398
915.99623	0.99437
913.94243	0.99455
911.88862	0.99461
909.83482	0.99509
907.78102	0.99562
905.72722	0.99571
903.67341	0.99566
901.61961	0.99568
899.56581	0.99575
897.51200	0.99594
895.45820	0.99624
893.40440	0.99660
891.35059	0.99687
889.29679	0.99680
887.24299	0.99621
885.18918	0.99551
883.13538	0.99560
881.08158	0.99648
879.02777	0.99716
876.97397	0.99719
874.92017	0.99704
872.86636	0.99706
870.81256	0.99679
868.75876	0.99635
866.70495	0.99652
864.65115	0.99698
862.59735	0.99709
860.54354	0.99722
858.48974	0.99767
856.43594	0.99818
854.38213	0.99845
852.32833	0.99865
850.27453	0.99863
848.22073	0.99801
846.16692	0.99763
844.11312	0.99782
842.05932	0.99808
840.00551	0.99866
837.95171	0.99921
835.89791	0.99917
833.84410	0.99886
831.79030	0.99852
829.73650	0.99830
827.68269	0.99825
825.62889	0.99777
823.57509	0.99722
821.52128	0.99689
819.46748	0.99640
817.41368	0.99608
815.35987	0.99611
813.30607	0.99578
811.25227	0.99450
809.19846	0.99193
807.14466	0.98789
805.09086	0.98324
803.03705	0.97921
800.98325	0.97598
798.92945	0.97383
796.87565	0.97333
794.82184	0.97441
792.76804	0.97695
790.71424	0.97992
788.66043	0.98096
786.60663	0.97962
784.55283	0.97769
782.49902	0.97603
780.44522	0.97504
778.39142	0.97551
776.33761	0.97762
774.28381	0.98060
772.23001	0.98354
770.17620	0.98588
768.12240	0.98737
766.06860	0.98841
764.01479	0.98962
761.96099	0.99109
759.90719	0.99258
757.85338	0.99401
755.79958	0.99526
753.74578	0.99579
751.69197	0.99535
749.63817	0.99422
747.58437	0.99331
745.53056	0.99390
743.47676	0.99531
741.42296	0.99594
739.36916	0.99589
737.31535	0.99577
735.26155	0.99620
733.20775	0.99684
731.15394	0.99667
729.10014	0.99651
727.04634	0.99735
724.99253	0.99793
722.93873	0.99699
720.88493	0.99574
718.83112	0.99581
716.77732	0.99671
714.72352	0.99727
712.66971	0.99760
710.61591	0.99769
708.56211	0.99706
706.50830	0.99644
704.45450	0.99624
702.40070	0.99583
700.34689	0.99474
698.29309	0.99291
696.23929	0.99096
694.18548	0.99009
692.13168	0.99083
690.07788	0.99223
688.02408	0.99387
685.97027	0.99549
683.91647	0.99612
681.86267	0.99631
679.80886	0.99648
677.75506	0.99622
675.70126	0.99644
673.64745	0.99747
671.59365	0.99834
669.53985	0.99897
667.48604	0.99920
665.43224	0.99839
663.37844	0.99756
661.32463	0.99714
659.27083	0.99705
657.21703	0.99771
655.16322	0.99895
653.10942	0.99944
651.05562	0.99958
649.00181	1.00028
646.94801	1.00040
644.89421	0.99973
642.84040	0.99948
640.78660	0.99999
638.73280	0.99998
636.67899	0.99872
634.62519	0.99796
632.57139	0.99878
630.51759	0.99977
628.46378	0.99995
626.40998	0.99941
624.35618	0.99883
622.30237	0.99908
620.24857	0.99910
618.19477	0.99802
616.14096	0.99730
614.08716	0.99710
612.03336	0.99699
609.97955	0.99734
607.92575	0.99724
605.87195	0.99754
603.81814	0.99925
601.76434	0.99971
599.71054	0.99862
597.65673	0.99885
595.60293	1.00003
593.54913	1.00049
591.49532	1.00066
589.44152	1.00032
587.38772	0.99930
585.33391	0.99864
583.28011	0.99907
581.22631	1.00073
579.17250	1.00165
577.11870	1.00057
575.06490	0.99943
573.01110	0.99929
570.95729	0.99865
568.90349	0.99718
566.84969	0.99731
564.79588	1.00019
562.74208	1.00348
560.68828	1.00335
558.63447	0.99990
556.58067	0.99722
554.52687	0.99706
552.47306	0.99857
550.41926	0.99918
548.36546	0.99745
546.31165	0.99579
544.25785	0.99543
542.20405	0.99504
540.15024	0.99363
538.09644	0.99146
536.04264	0.98871
533.98883	0.98507
531.93503	0.98149
529.88123	0.97904
527.82742	0.97776
525.77362	0.97786
523.71982	0.97838
521.66602	0.97817
519.61221	0.97798
517.55841	0.97853
515.50461	0.97928
513.45080	0.97869
511.39700	0.97830
509.34320	0.98060
507.28939	0.98218
505.23559	0.98081
503.18179	0.97953
501.12798	0.97862
499.07418	0.97614
497.02038	0.97181
494.96657	0.96793
492.91277	0.96675
490.85897	0.96636
488.80516	0.96474
486.75136	0.96199
484.69756	0.95944
482.64375	0.95936
480.58995	0.96017
478.53615	0.95791
476.48234	0.95333
474.42854	0.94979
472.37474	0.94705
470.32093	0.94475
468.26713	0.94246
466.21333	0.93896
464.15953	0.93601
462.10572	0.93547
460.05192	0.93659
457.99812	0.93729
455.94431	0.93822
453.89051	0.94192
451.83671	0.94727
449.78290	0.95319
447.72910	0.95972
445.67530	0.96379
443.62149	0.96515
441.56769	0.96892
439.51389	0.97428
437.46008	0.97556
435.40628	0.97466
433.35248	0.97565
431.29867	0.97501
429.24487	0.97253
427.19107	0.97421
425.13726	0.98211
423.08346	0.98882
421.02966	0.98760
418.97585	0.98185
416.92205	0.97963
414.86825	0.98269
412.81445	0.98651
410.76064	0.98826
408.70684	0.98769
406.65304	0.98626
404.59923	0.98979
402.54543	0.99619
400.49163	0.99247
398.43782	0.97583
