3996.70104	0.98195
3994.64724	0.98211
3992.59344	0.98161
3990.53964	0.98148
3988.48583	0.98198
3986.43203	0.98233
3984.37823	0.98219
3982.32442	0.98178
3980.27062	0.98134
3978.21682	0.98129
3976.16301	0.98174
3974.10921	0.98187
3972.05541	0.98151
3970.00160	0.98172
3967.94780	0.98252
3965.89400	0.98279
3963.84019	0.98261
3961.78639	0.98241
3959.73259	0.98205
3957.67878	0.98177
3955.62498	0.98158
3953.57118	0.98145
3951.51737	0.98159
3949.46357	0.98185
3947.40977	0.98194
3945.35596	0.98189
3943.30216	0.98216
3941.24836	0.98215
3939.19455	0.98152
3937.14075	0.98153
3935.08695	0.98241
3933.03315	0.98275
3930.97934	0.98210
3928.92554	0.98173
3926.87174	0.98215
3924.81793	0.98287
3922.76413	0.98322
3920.71033	0.98301
3918.65652	0.98286
3916.60272	0.98299
3914.54892	0.98272
3912.49511	0.98214
3910.44131	0.98190
3908.38751	0.98210
3906.33370	0.98260
3904.27990	0.98278
3902.22610	0.98189
3900.17229	0.98132
3898.11849	0.98208
3896.06469	0.98251
3894.01088	0.98209
3891.95708	0.98186
3889.90328	0.98219
3887.84947	0.98272
3885.79567	0.98312
3883.74187	0.98294
3881.68807	0.98281
3879.63426	0.98294
3877.58046	0.98280
3875.52666	0.98255
3873.47285	0.98235
3871.41905	0.98220
3869.36525	0.98211
3867.31144	0.98227
3865.25764	0.98272
3863.20384	0.98307
3861.15003	0.98273
3859.09623	0.98222
3857.04243	0.98233
3854.98862	0.98278
3852.93482	0.98246
3850.88102	0.98176
3848.82721	0.98164
3846.77341	0.98211
3844.71961	0.98276
3842.66580	0.98299
3840.61200	0.98341
3838.55820	0.98425
3836.50439	0.98388
3834.45059	0.98279
3832.39679	0.98235
3830.34298	0.98264
3828.28918	0.98336
3826.23538	0.98367
3824.18158	0.98322
3822.12777	0.98305
3820.07397	0.98340
3818.02017	0.98363
3815.96636	0.98424
3813.91256	0.98438
3811.85876	0.98378
3809.80495	0.98357
3807.75115	0.98369
3805.69735	0.98351
3803.64354	0.98302
3801.58974	0.98245
3799.53594	0.98238
3797.48213	0.98225
3795.42833	0.98168
3793.37453	0.98161
3791.32072	0.98218
3789.26692	0.98255
3787.21312	0.98249
3785.15931	0.98255
3783.10551	0.98256
3781.05171	0.98196
3778.99790	0.98121
3776.94410	0.98112
3774.89030	0.98138
3772.83650	0.98184
3770.78269	0.98273
3768.72889	0.98335
3766.67509	0.98325
3764.62128	0.98305
3762.56748	0.98264
3760.51368	0.98252
3758.45987	0.98342
3756.40607	0.98458
3754.35227	0.98530
3752.29846	0.98539
3750.24466	0.98477
3748.19086	0.98401
3746.13705	0.98360
3744.08325	0.98329
3742.02945	0.98237
3739.97564	0.98144
3737.92184	0.98114
3735.86804	0.98130
3733.81423	0.98158
3731.76043	0.98248
3729.70663	0.98315
3727.65282	0.98261
3725.59902	0.98182
3723.54522	0.98185
3721.49141	0.98168
3719.43761	0.98086
3717.38381	0.98000
3715.33001	0.97901
3713.27620	0.97742
3711.22240	0.97605
3709.16860	0.97575
3707.11479	0.97482
3705.06099	0.97313
3703.00719	0.97112
3700.95338	0.96862
3698.89958	0.96669
3696.84578	0.96635
3694.79197	0.96718
3692.73817	0.96811
3690.68437	0.96841
3688.63056	0.96898
3686.57676	0.97033
3684.52296	0.97095
3682.46915	0.97091
3680.41535	0.97086
3678.36155	0.97049
3676.30774	0.96968
3674.25394	0.96967
3672.20014	0.97019
3670.14633	0.97044
3668.09253	0.97032
3666.03873	0.96994
3663.98492	0.96960
3661.93112	0.96889
3659.87732	0.96800
3657.82352	0.96756
3655.76971	0.96729
3653.71591	0.96717
3651.66211	0.96747
3649.60830	0.96731
3647.55450	0.96552
3645.50070	0.96422
3643.44689	0.96423
3641.39309	0.96447
3639.33929	0.96424
3637.28548	0.96367
3635.23168	0.96321
3633.17788	0.96284
3631.12407	0.96191
3629.07027	0.95997
3627.01647	0.95829
3624.96266	0.95779
3622.90886	0.95739
3620.85506	0.95696
3618.80125	0.95730
3616.74745	0.95816
3614.69365	0.95825
3612.63984	0.95812
3610.58604	0.95881
3608.53224	0.95942
3606.47844	0.95929
3604.42463	0.95904
3602.37083	0.95861
3600.31703	0.95786
3598.26322	0.95721
3596.20942	0.95726
3594.15562	0.95803
3592.10181	0.95877
3590.04801	0.95907
3587.99421	0.95857
3585.94040	0.95747
3583.88660	0.95689
3581.83280	0.95701
3579.77899	0.95727
3577.72519	0.95718
3575.67139	0.95711
3573.61758	0.95708
3571.56378	0.95667
3569.50998	0.95604
3567.45617	0.95524
3565.40237	0.95439
3563.34857	0.95446
3561.29476	0.95532
3559.24096	0.95576
3557.18716	0.95544
3555.13335	0.95483
3553.07955	0.95399
3551.02575	0.95345
3548.97195	0.95366
3546.91814	0.95383
3544.86434	0.95401
3542.81054	0.95430
3540.75673	0.95408
3538.70293	0.95356
3536.64913	0.95290
3534.59532	0.95211
3532.54152	0.95156
3530.48772	0.95129
3528.43391	0.95113
3526.38011	0.95103
3524.32631	0.95091
3522.27250	0.95054
3520.21870	0.95002
3518.16490	0.94992
3516.11109	0.95008
3514.05729	0.94992
3512.00349	0.94950
3509.94968	0.94912
3507.89588	0.94891
3505.84208	0.94874
3503.78827	0.94861
3501.73447	0.94895
3499.68067	0.94952
3497.62687	0.94949
3495.57306	0.94883
3493.51926	0.94827
3491.46546	0.94803
3489.41165	0.94767
3487.35785	0.94701
3485.30405	0.94648
3483.25024	0.94668
3481.19644	0.94701
3479.14264	0.94631
3477.08883	0.94510
3475.03503	0.94454
3472.98123	0.94452
3470.92742	0.94460
3468.87362	0.94456
3466.81982	0.94393
3464.76601	0.94313
3462.71221	0.94277
3460.65841	0.94242
3458.60460	0.94220
3456.55080	0.94241
3454.49700	0.94261
3452.44319	0.94242
3450.38939	0.94188
3448.33559	0.94137
3446.28178	0.94114
3444.22798	0.94102
3442.17418	0.94093
3440.12038	0.94092
3438.06657	0.94096
3436.01277	0.94083
3433.95897	0.94048
3431.90516	0.94022
3429.85136	0.94022
3427.79756	0.94030
3425.74375	0.94009
3423.68995	0.93953
3421.63615	0.93899
3419.58234	0.93854
3417.52854	0.93805
3415.47474	0.93775
3413.42093	0.93789
3411.36713	0.93834
3409.31333	0.93882
3407.25952	0.93887
3405.20572	0.93850
3403.15192	0.93824
3401.09811	0.93786
3399.04431	0.93734
3396.99051	0.93709
3394.93670	0.93698
3392.88290	0.93707
3390.82910	0.93734
3388.77529	0.93736
3386.72149	0.93726
3384.66769	0.93736
3382.61389	0.93716
3380.56008	0.93646
3378.50628	0.93599
3376.45248	0.93603
3374.39867	0.93631
3372.34487	0.93662
3370.29107	0.93670
3368.23726	0.93669
3366.18346	0.93677
3364.12966	0.93683
3362.07585	0.93682
3360.02205	0.93693
3357.96825	0.93751
3355.91444	0.93818
3353.86064	0.93817
3351.80684	0.93750
3349.75303	0.93701
3347.69923	0.93748
3345.64543	0.93839
3343.59162	0.93861
3341.53782	0.93858
3339.48402	0.93904
3337.43021	0.93955
3335.37641	0.93971
3333.32261	0.93955
3331.26881	0.93931
3329.21500	0.93965
3327.16120	0.94028
3325.10740	0.94032
3323.05359	0.94012
3320.99979	0.94023
3318.94599	0.94042
3316.89218	0.94048
3314.83838	0.94044
3312.78458	0.94054
3310.73077	0.94105
3308.67697	0.94145
3306.62317	0.94133
3304.56936	0.94131
3302.51556	0.94188
3300.46176	0.94274
3298.40795	0.94314
3296.35415	0.94303
3294.30035	0.94317
3292.24654	0.94367
3290.19274	0.94378
3288.13894	0.94328
3286.08513	0.94262
3284.03133	0.94231
3281.97753	0.94250
3279.92372	0.94315
3277.86992	0.94387
3275.81612	0.94397
3273.76232	0.94359
3271.70851	0.94358
3269.65471	0.94402
3267.60091	0.94412
3265.54710	0.94418
3263.49330	0.94488
3261.43950	0.94559
3259.38569	0.94603
3257.33189	0.94648
3255.27809	0.94692
3253.22428	0.94710
3251.17048	0.94688
3249.11668	0.94671
3247.06287	0.94655
3245.00907	0.94612
3242.95527	0.94608
3240.90146	0.94669
3238.84766	0.94733
3236.79386	0.94774
3234.74005	0.94784
3232.68625	0.94763
3230.63245	0.94780
3228.57864	0.94841
3226.52484	0.94851
3224.47104	0.94828
3222.41724	0.94873
3220.36343	0.94952
3218.30963	0.94986
3216.25583	0.95006
3214.20202	0.95063
3212.14822	0.95123
3210.09442	0.95141
3208.04061	0.95150
3205.98681	0.95184
3203.93301	0.95218
3201.87920	0.95254
3199.82540	0.95289
3197.77160	0.95292
3195.71779	0.95296
3193.66399	0.95320
3191.61019	0.95332
3189.55638	0.95330
3187.50258	0.95353
3185.44878	0.95415
3183.39497	0.95482
3181.34117	0.95524
3179.28737	0.95528
3177.23356	0.95516
3175.17976	0.95510
3173.12596	0.95529
3171.07215	0.95585
3169.01835	0.95663
3166.96455	0.95772
3164.91075	0.95849
3162.85694	0.95826
3160.80314	0.95796
3158.74934	0.95827
3156.69553	0.95863
3154.64173	0.95867
3152.58793	0.95881
3150.53412	0.95937
3148.48032	0.96005
3146.42652	0.96025
3144.37271	0.96011
3142.31891	0.96025
3140.26511	0.96059
3138.21130	0.96083
3136.15750	0.96121
3134.10370	0.96166
3132.04989	0.96199
3129.99609	0.96223
3127.94229	0.96227
3125.88848	0.96248
3123.83468	0.96316
3121.78088	0.96355
3119.72707	0.96352
3117.67327	0.96361
3115.61947	0.96388
3113.56566	0.96430
3111.51186	0.96457
3109.45806	0.96451
3107.40426	0.96429
3105.35045	0.96405
3103.29665	0.96432
3101.24285	0.96508
3099.18904	0.96576
3097.13524	0.96607
3095.08144	0.96582
3093.02763	0.96532
3090.97383	0.96523
3088.92003	0.96545
3086.86622	0.96556
3084.81242	0.96555
3082.75862	0.96594
3080.70481	0.96672
3078.65101	0.96728
3076.59721	0.96755
3074.54340	0.96802
3072.48960	0.96870
3070.43580	0.96895
3068.38199	0.96880
3066.32819	0.96891
3064.27439	0.96920
3062.22058	0.96962
3060.16678	0.96964
3058.11298	0.96902
3056.05918	0.96866
3054.00537	0.96869
3051.95157	0.96861
3049.89777	0.96857
3047.84396	0.96874
3045.79016	0.96909
3043.73636	0.96965
3041.68255	0.97011
3039.62875	0.97016
3037.57495	0.97016
3035.52114	0.97020
3033.46734	0.97043
3031.41354	0.97097
3029.35973	0.97125
3027.30593	0.97124
3025.25213	0.97135
3023.19832	0.97148
3021.14452	0.97148
3019.09072	0.97135
3017.03691	0.97130
3014.98311	0.97136
3012.92931	0.97122
3010.87550	0.97104
3008.82170	0.97118
3006.76790	0.97137
3004.71409	0.97126
3002.66029	0.97131
3000.60649	0.97176
2998.55269	0.97192
2996.49888	0.97181
2994.44508	0.97200
2992.39128	0.97261
2990.33747	0.97304
2988.28367	0.97273
2986.22987	0.97228
2984.17606	0.97219
2982.12226	0.97222
2980.06846	0.97210
2978.01465	0.97178
2975.96085	0.97163
2973.90705	0.97148
2971.85324	0.97107
2969.79944	0.97067
2967.74564	0.97016
2965.69183	0.96932
2963.63803	0.96870
2961.58423	0.96843
2959.53042	0.96806
2957.47662	0.96739
2955.42282	0.96632
2953.36901	0.96488
2951.31521	0.96350
2949.26141	0.96220
2947.20761	0.96020
2945.15380	0.95694
2943.10000	0.95259
2941.04620	0.94741
2938.99239	0.94122
2936.93859	0.93384
2934.88479	0.92538
2932.83098	0.91547
2930.77718	0.90399
2928.72338	0.89095
2926.66957	0.87564
2924.61577	0.85730
2922.56197	0.83597
2920.50816	0.81249
2918.45436	0.78904
2916.40056	0.77003
2914.34675	0.76116
2912.29295	0.76573
2910.23915	0.78067
2908.18534	0.79903
2906.13154	0.81572
2904.07774	0.82930
2902.02393	0.84009
2899.97013	0.84884
2897.91633	0.85623
2895.86252	0.86278
2893.80872	0.86933
2891.75492	0.87626
2889.70112	0.88327
2887.64731	0.89038
2885.59351	0.89769
2883.53971	0.90498
2881.48590	0.91227
2879.43210	0.91958
2877.37830	0.92656
2875.32449	0.93255
2873.27069	0.93702
2871.21689	0.94008
2869.16308	0.94179
2867.10928	0.94177
2865.05548	0.93963
2863.00167	0.93512
2860.94787	0.92786
2858.89407	0.91667
2856.84026	0.89985
2854.78646	0.87586
2852.73266	0.84444
2850.67885	0.80989
2848.62505	0.78306
2846.57125	0.77550
2844.51744	0.78920
2842.46364	0.81562
2840.40984	0.84428
2838.35603	0.86896
2836.30223	0.88822
2834.24843	0.90286
2832.19463	0.91393
2830.14082	0.92245
2828.08702	0.92934
2826.03322	0.93509
2823.97941	0.93996
2821.92561	0.94394
2819.87181	0.94709
2817.81800	0.94980
2815.76420	0.95232
2813.71040	0.95449
2811.65659	0.95624
2809.60279	0.95772
2807.54899	0.95902
2805.49518	0.96040
2803.44138	0.96170
2801.38758	0.96260
2799.33377	0.96322
2797.27997	0.96367
2795.22617	0.96409
2793.17236	0.96478
2791.11856	0.96577
2789.06476	0.96670
2787.01095	0.96737
2784.95715	0.96783
2782.90335	0.96838
2780.84955	0.96896
2778.79574	0.96936
2776.74194	0.96981
2774.68814	0.97027
2772.63433	0.97058
2770.58053	0.97102
2768.52673	0.97152
2766.47292	0.97195
2764.41912	0.97262
2762.36532	0.97336
2760.31151	0.97363
2758.25771	0.97349
2756.20391	0.97341
2754.15010	0.97350
2752.09630	0.97355
2750.04250	0.97361
2747.98869	0.97358
2745.93489	0.97326
2743.88109	0.97308
2741.82728	0.97325
2739.77348	0.97358
2737.71968	0.97393
2735.66587	0.97407
2733.61207	0.97402
2731.55827	0.97411
2729.50446	0.97447
2727.45066	0.97484
2725.39686	0.97517
2723.34306	0.97548
2721.28925	0.97550
2719.23545	0.97531
2717.18165	0.97521
2715.12784	0.97532
2713.07404	0.97544
2711.02024	0.97532
2708.96643	0.97539
2706.91263	0.97584
2704.85883	0.97611
2702.80502	0.97614
2700.75122	0.97617
2698.69742	0.97618
2696.64361	0.97614
2694.58981	0.97606
2692.53601	0.97604
2690.48220	0.97621
2688.42840	0.97647
2686.37460	0.97661
2684.32079	0.97662
2682.26699	0.97661
2680.21319	0.97647
2678.15938	0.97631
2676.10558	0.97647
2674.05178	0.97666
2671.99797	0.97659
2669.94417	0.97651
2667.89037	0.97650
2665.83657	0.97647
2663.78276	0.97649
2661.72896	0.97640
2659.67516	0.97613
2657.62135	0.97606
2655.56755	0.97646
2653.51375	0.97670
2651.45994	0.97623
2649.40614	0.97570
2647.35234	0.97575
2645.29853	0.97588
2643.24473	0.97577
2641.19093	0.97585
2639.13712	0.97619
2637.08332	0.97638
2635.02952	0.97626
2632.97571	0.97634
2630.92191	0.97685
2628.86811	0.97719
2626.81430	0.97723
2624.76050	0.97745
2622.70670	0.97781
2620.65289	0.97799
2618.59909	0.97805
2616.54529	0.97800
2614.49149	0.97770
2612.43768	0.97738
2610.38388	0.97738
2608.33008	0.97758
2606.27627	0.97764
2604.22247	0.97752
2602.16867	0.97749
2600.11486	0.97784
2598.06106	0.97833
2596.00726	0.97858
2593.95345	0.97875
2591.89965	0.97892
2589.84585	0.97890
2587.79204	0.97895
2585.73824	0.97941
2583.68444	0.97993
2581.63063	0.98041
2579.57683	0.98102
2577.52303	0.98137
2575.46922	0.98121
2573.41542	0.98068
2571.36162	0.97983
2569.30781	0.97923
2567.25401	0.97934
2565.20021	0.97940
2563.14640	0.97905
2561.09260	0.97885
2559.03880	0.97908
2556.98500	0.97973
2554.93119	0.98058
2552.87739	0.98099
2550.82359	0.98108
2548.76978	0.98150
2546.71598	0.98195
2544.66218	0.98181
2542.60837	0.98126
2540.55457	0.98087
2538.50077	0.98098
2536.44696	0.98128
2534.39316	0.98120
2532.33936	0.98074
2530.28555	0.98074
2528.23175	0.98123
2526.17795	0.98149
2524.12414	0.98165
2522.07034	0.98150
2520.01654	0.98106
2517.96273	0.98119
2515.90893	0.98194
2513.85513	0.98226
2511.80132	0.98158
2509.74752	0.98090
2507.69372	0.98077
2505.63992	0.98077
2503.58611	0.98117
2501.53231	0.98184
2499.47851	0.98191
2497.42470	0.98147
2495.37090	0.98072
2493.31710	0.97976
2491.26329	0.97967
2489.20949	0.98093
2487.15569	0.98272
2485.10188	0.98377
2483.04808	0.98341
2480.99428	0.98230
2478.94047	0.98152
2476.88667	0.98152
2474.83287	0.98189
2472.77906	0.98172
2470.72526	0.98071
2468.67146	0.97988
2466.61765	0.98010
2464.56385	0.98065
2462.51005	0.98075
2460.45624	0.98078
2458.40244	0.98087
2456.34864	0.98062
2454.29483	0.98031
2452.24103	0.98037
2450.18723	0.98075
2448.13343	0.98132
2446.07962	0.98148
2444.02582	0.98138
2441.97202	0.98191
2439.91821	0.98196
2437.86441	0.98100
2435.81061	0.98050
2433.75680	0.98067
2431.70300	0.98094
2429.64920	0.98141
2427.59539	0.98185
2425.54159	0.98174
2423.48779	0.98109
2421.43398	0.98069
2419.38018	0.98107
2417.32638	0.98170
2415.27257	0.98192
2413.21877	0.98189
2411.16497	0.98181
2409.11116	0.98166
2407.05736	0.98163
2405.00356	0.98189
2402.94975	0.98220
2400.89595	0.98237
2398.84215	0.98251
2396.78834	0.98265
2394.73454	0.98266
2392.68074	0.98253
2390.62694	0.98212
2388.57313	0.98148
2386.51933	0.98117
2384.46553	0.98132
2382.41172	0.98157
2380.35792	0.98147
2378.30412	0.98058
2376.25031	0.97958
2374.19651	0.97956
2372.14271	0.98021
2370.08890	0.98102
2368.03510	0.98108
2365.98130	0.97997
2363.92749	0.97957
2361.87369	0.98018
2359.81989	0.98027
2357.76608	0.98030
2355.71228	0.98092
2353.65848	0.98136
2351.60467	0.98134
2349.55087	0.98093
2347.49707	0.98021
2345.44326	0.97989
2343.38946	0.98027
2341.33566	0.98046
2339.28186	0.98006
2337.22805	0.97971
2335.17425	0.97965
2333.12045	0.97926
2331.06664	0.97901
2329.01284	0.97954
2326.95904	0.97995
2324.90523	0.97953
2322.85143	0.97926
2320.79763	0.97993
2318.74382	0.98023
2316.69002	0.97989
2314.63622	0.98026
2312.58241	0.98127
2310.52861	0.98156
2308.47481	0.98120
2306.42100	0.98092
2304.36720	0.98058
2302.31340	0.98030
2300.25959	0.98041
2298.20579	0.98076
2296.15199	0.98087
2294.09818	0.98037
2292.04438	0.97995
2289.99058	0.98030
2287.93677	0.98123
2285.88297	0.98201
2283.82917	0.98159
2281.77537	0.98102
2279.72156	0.98125
2277.66776	0.98080
2275.61396	0.97987
2273.56015	0.98027
2271.50635	0.98172
2269.45255	0.98212
2267.39874	0.98155
2265.34494	0.98143
2263.29114	0.98173
2261.23733	0.98232
2259.18353	0.98281
2257.12973	0.98253
2255.07592	0.98199
2253.02212	0.98223
2250.96832	0.98287
2248.91451	0.98338
2246.86071	0.98343
2244.80691	0.98240
2242.75310	0.98117
2240.69930	0.98081
2238.64550	0.98039
2236.59169	0.97947
2234.53789	0.97957
2232.48409	0.98090
2230.43029	0.98207
2228.37648	0.98257
2226.32268	0.98273
2224.26888	0.98324
2222.21507	0.98402
2220.16127	0.98387
2218.10747	0.98331
2216.05366	0.98365
2213.99986	0.98457
2211.94606	0.98480
2209.89225	0.98364
2207.83845	0.98171
2205.78465	0.97986
2203.73084	0.97996
2201.67704	0.98254
2199.62324	0.98402
2197.56943	0.98310
2195.51563	0.98227
2193.46183	0.98234
2191.40802	0.98298
2189.35422	0.98356
2187.30042	0.98386
2185.24661	0.98551
2183.19281	0.98776
2181.13901	0.98809
2179.08520	0.98686
2177.03140	0.98525
2174.97760	0.98500
2172.92380	0.98664
2170.86999	0.98655
2168.81619	0.98377
2166.76239	0.98175
2164.70858	0.98212
2162.65478	0.98300
2160.60098	0.98283
2158.54717	0.98412
2156.49337	0.98626
2154.43957	0.98576
2152.38576	0.98482
2150.33196	0.98426
2148.27816	0.98202
2146.22435	0.98025
2144.17055	0.98181
2142.11675	0.98417
2140.06294	0.98491
2138.00914	0.98506
2135.95534	0.98527
2133.90153	0.98536
2131.84773	0.98462
2129.79393	0.98376
2127.74012	0.98385
2125.68632	0.98352
2123.63252	0.98267
2121.57871	0.98246
2119.52491	0.98268
2117.47111	0.98296
2115.41731	0.98296
2113.36350	0.98230
2111.30970	0.98154
2109.25590	0.98181
2107.20209	0.98265
2105.14829	0.98297
2103.09449	0.98281
2101.04068	0.98197
2098.98688	0.98079
2096.93308	0.98093
2094.87927	0.98188
2092.82547	0.98267
2090.77167	0.98381
2088.71786	0.98425
2086.66406	0.98359
2084.61026	0.98324
2082.55645	0.98337
2080.50265	0.98332
2078.44885	0.98345
2076.39504	0.98391
2074.34124	0.98385
2072.28744	0.98347
2070.23363	0.98357
2068.17983	0.98424
2066.12603	0.98444
2064.07223	0.98395
2062.01842	0.98392
2059.96462	0.98349
2057.91082	0.98123
2055.85701	0.97910
2053.80321	0.97935
2051.74941	0.98029
2049.69560	0.98073
2047.64180	0.98145
2045.58800	0.98214
2043.53419	0.98345
2041.48039	0.98488
2039.42659	0.98430
2037.37278	0.98318
2035.31898	0.98411
2033.26518	0.98652
2031.21137	0.98790
2029.15757	0.98739
2027.10377	0.98548
2025.04996	0.98278
2022.99616	0.98093
2020.94236	0.98117
2018.88855	0.98244
2016.83475	0.98231
2014.78095	0.98068
2012.72714	0.97916
2010.67334	0.97836
2008.61954	0.97983
2006.56574	0.98402
2004.51193	0.98705
2002.45813	0.98685
2000.40433	0.98607
1998.35052	0.98706
1996.29672	0.98963
1994.24292	0.99179
1992.18911	0.99176
1990.13531	0.98881
1988.08151	0.98538
1986.02770	0.98489
1983.97390	0.98549
1981.92010	0.98428
1979.86629	0.98136
1977.81249	0.97864
1975.75869	0.97992
1973.70488	0.98378
1971.65108	0.98464
1969.59728	0.98295
1967.54347	0.98239
1965.48967	0.98342
1963.43587	0.98486
1961.38206	0.98646
1959.32826	0.98809
1957.27446	0.98855
1955.22066	0.98753
1953.16685	0.98697
1951.11305	0.98741
1949.05925	0.98768
1947.00544	0.98756
1944.95164	0.98719
1942.89784	0.98643
1940.84403	0.98572
1938.79023	0.98542
1936.73643	0.98469
1934.68262	0.98380
1932.62882	0.98382
1930.57502	0.98365
1928.52121	0.98292
1926.46741	0.98312
1924.41361	0.98443
1922.35980	0.98543
1920.30600	0.98534
1918.25220	0.98466
1916.19839	0.98432
1914.14459	0.98462
1912.09079	0.98500
1910.03698	0.98513
1907.98318	0.98479
1905.92938	0.98373
1903.87557	0.98265
1901.82177	0.98246
1899.76797	0.98290
1897.71417	0.98314
1895.66036	0.98293
1893.60656	0.98252
1891.55276	0.98210
1889.49895	0.98241
1887.44515	0.98338
1885.39135	0.98346
1883.33754	0.98289
1881.28374	0.98306
1879.22994	0.98324
1877.17613	0.98258
1875.12233	0.98258
1873.06853	0.98357
1871.01472	0.98382
1868.96092	0.98282
1866.90712	0.98257
1864.85331	0.98361
1862.79951	0.98441
1860.74571	0.98426
1858.69190	0.98359
1856.63810	0.98317
1854.58430	0.98293
1852.53049	0.98291
1850.47669	0.98338
1848.42289	0.98386
1846.36908	0.98398
1844.31528	0.98404
1842.26148	0.98391
1840.20768	0.98358
1838.15387	0.98350
1836.10007	0.98379
1834.04627	0.98391
1831.99246	0.98356
1829.93866	0.98331
1827.88486	0.98346
1825.83105	0.98363
1823.77725	0.98362
1821.72345	0.98343
1819.66964	0.98356
1817.61584	0.98383
1815.56204	0.98369
1813.50823	0.98358
1811.45443	0.98350
1809.40063	0.98311
1807.34682	0.98278
1805.29302	0.98285
1803.23922	0.98299
1801.18541	0.98289
1799.13161	0.98300
1797.07781	0.98314
1795.02400	0.98302
1792.97020	0.98307
1790.91640	0.98333
1788.86260	0.98324
1786.80879	0.98268
1784.75499	0.98224
1782.70119	0.98219
1780.64738	0.98217
1778.59358	0.98225
1776.53978	0.98258
1774.48597	0.98294
1772.43217	0.98320
1770.37837	0.98319
1768.32456	0.98277
1766.27076	0.98220
1764.21696	0.98218
1762.16315	0.98287
1760.10935	0.98290
1758.05555	0.98201
1756.00174	0.98115
1753.94794	0.98045
1751.89414	0.98012
1749.84033	0.98020
1747.78653	0.98006
1745.73273	0.98009
1743.67892	0.98038
1741.62512	0.98046
1739.57132	0.98043
1737.51751	0.98036
1735.46371	0.98006
1733.40991	0.97960
1731.35611	0.97924
1729.30230	0.97859
1727.24850	0.97763
1725.19470	0.97689
1723.14089	0.97662
1721.08709	0.97667
1719.03329	0.97681
1716.97948	0.97705
1714.92568	0.97719
1712.87188	0.97705
1710.81807	0.97669
1708.76427	0.97620
1706.71047	0.97563
1704.65666	0.97530
1702.60286	0.97522
1700.54906	0.97490
1698.49525	0.97404
1696.44145	0.97290
1694.38765	0.97167
1692.33384	0.97079
1690.28004	0.97024
1688.22624	0.96965
1686.17243	0.96883
1684.11863	0.96751
1682.06483	0.96622
1680.01103	0.96547
1677.95722	0.96481
1675.90342	0.96417
1673.84962	0.96373
1671.79581	0.96337
1669.74201	0.96262
1667.68821	0.96148
1665.63440	0.96051
1663.58060	0.95953
1661.52680	0.95889
1659.47299	0.95878
1657.41919	0.95861
1655.36539	0.95806
1653.31158	0.95684
1651.25778	0.95628
1649.20398	0.95653
1647.15017	0.95661
1645.09637	0.95635
1643.04257	0.95594
1640.98876	0.95569
1638.93496	0.95585
1636.88116	0.95631
1634.82735	0.95622
1632.77355	0.95573
1630.71975	0.95556
1628.66594	0.95543
1626.61214	0.95515
1624.55834	0.95518
1622.50454	0.95589
1620.45073	0.95677
1618.39693	0.95730
1616.34313	0.95795
1614.28932	0.95905
1612.23552	0.96013
1610.18172	0.96109
1608.12791	0.96205
1606.07411	0.96306
1604.02031	0.96395
1601.96650	0.96474
1599.91270	0.96557
1597.85890	0.96617
1595.80509	0.96663
1593.75129	0.96729
1591.69749	0.96800
1589.64368	0.96844
1587.58988	0.96858
1585.53608	0.96861
1583.48227	0.96860
1581.42847	0.96881
1579.37467	0.96920
1577.32086	0.96940
1575.26706	0.96959
1573.21326	0.97002
1571.15945	0.97037
1569.10565	0.97050
1567.05185	0.97065
1564.99805	0.97104
1562.94424	0.97149
1560.89044	0.97174
1558.83664	0.97158
1556.78283	0.97154
1554.72903	0.97180
1552.67523	0.97206
1550.62142	0.97241
1548.56762	0.97251
1546.51382	0.97234
1544.46001	0.97247
1542.40621	0.97300
1540.35241	0.97331
1538.29860	0.97310
1536.24480	0.97287
1534.19100	0.97290
1532.13719	0.97318
1530.08339	0.97336
1528.02959	0.97367
1525.97578	0.97420
1523.92198	0.97431
1521.86818	0.97390
1519.81437	0.97373
1517.76057	0.97402
1515.70677	0.97446
1513.65297	0.97499
1511.59916	0.97549
1509.54536	0.97595
1507.49156	0.97622
1505.43775	0.97572
1503.38395	0.97532
1501.33015	0.97525
1499.27634	0.97505
1497.22254	0.97493
1495.16874	0.97530
1493.11493	0.97549
1491.06113	0.97518
1489.00733	0.97468
1486.95352	0.97415
1484.89972	0.97367
1482.84592	0.97295
1480.79211	0.97099
1478.73831	0.96612
1476.68451	0.95285
1474.63070	0.92607
1472.57690	0.90029
1470.52310	0.89839
1468.46929	0.90617
1466.41549	0.90792
1464.36169	0.89899
1462.30788	0.89254
1460.25408	0.90091
1458.20028	0.92126
1456.14648	0.94072
1454.09267	0.94877
1452.03887	0.95280
1449.98507	0.95577
1447.93126	0.95786
1445.87746	0.95912
1443.82366	0.95972
1441.76985	0.96033
1439.71605	0.96114
1437.66225	0.96203
1435.60844	0.96333
1433.55464	0.96441
1431.50084	0.96498
1429.44703	0.96578
1427.39323	0.96703
1425.33943	0.96817
1423.28562	0.96907
1421.23182	0.96976
1419.17802	0.97008
1417.12421	0.97012
1415.07041	0.97044
1413.01661	0.97108
1410.96280	0.97147
1408.90900	0.97154
1406.85520	0.97175
1404.80139	0.97193
1402.74759	0.97177
1400.69379	0.97150
1398.63999	0.97131
1396.58618	0.97119
1394.53238	0.97108
1392.47858	0.97110
1390.42477	0.97122
1388.37097	0.97114
1386.31717	0.97085
1384.26336	0.97067
1382.20956	0.97053
1380.15576	0.97028
1378.10195	0.97013
1376.04815	0.97009
1373.99435	0.96992
1371.94054	0.96956
1369.88674	0.96890
1367.83294	0.96820
1365.77913	0.96795
1363.72533	0.96808
1361.67153	0.96856
1359.61772	0.96925
1357.56392	0.96969
1355.51012	0.96957
1353.45631	0.96920
1351.40251	0.96932
1349.34871	0.96983
1347.29491	0.97022
1345.24110	0.97054
1343.18730	0.97093
1341.13350	0.97128
1339.07969	0.97143
1337.02589	0.97143
1334.97209	0.97169
1332.91828	0.97204
1330.86448	0.97208
1328.81068	0.97216
1326.75687	0.97235
1324.70307	0.97224
1322.64927	0.97187
1320.59546	0.97125
1318.54166	0.97058
1316.48786	0.97015
1314.43405	0.96975
1312.38025	0.96947
1310.32645	0.96923
1308.27264	0.96883
1306.21884	0.96864
1304.16504	0.96872
1302.11123	0.96865
1300.05743	0.96865
1298.00363	0.96891
1295.94982	0.96899
1293.89602	0.96900
1291.84222	0.96927
1289.78842	0.96951
1287.73461	0.96948
1285.68081	0.96931
1283.62701	0.96918
1281.57320	0.96899
1279.51940	0.96860
1277.46560	0.96799
1275.41179	0.96740
1273.35799	0.96728
1271.30419	0.96733
1269.25038	0.96688
1267.19658	0.96608
1265.14278	0.96552
1263.08897	0.96520
1261.03517	0.96492
1258.98137	0.96476
1256.92756	0.96467
1254.87376	0.96456
1252.81996	0.96450
1250.76615	0.96458
1248.71235	0.96448
1246.65855	0.96412
1244.60474	0.96362
1242.55094	0.96304
1240.49714	0.96270
1238.44334	0.96245
1236.38953	0.96182
1234.33573	0.96105
1232.28193	0.96046
1230.22812	0.96003
1228.17432	0.95979
1226.12052	0.95946
1224.06671	0.95850
1222.01291	0.95718
1219.95911	0.95631
1217.90530	0.95601
1215.85150	0.95533
1213.79770	0.95373
1211.74389	0.95218
1209.69009	0.95121
1207.63629	0.95018
1205.58248	0.94908
1203.52868	0.94795
1201.47488	0.94659
1199.42107	0.94503
1197.36727	0.94355
1195.31347	0.94214
1193.25966	0.94055
1191.20586	0.93893
1189.15206	0.93712
1187.09825	0.93481
1185.04445	0.93258
1182.99065	0.93069
1180.93685	0.92856
1178.88304	0.92606
1176.82924	0.92361
1174.77544	0.92128
1172.72163	0.91883
1170.66783	0.91628
1168.61403	0.91385
1166.56022	0.91166
1164.50642	0.90966
1162.45262	0.90785
1160.39881	0.90635
1158.34501	0.90491
1156.29121	0.90319
1154.23740	0.90139
1152.18360	0.89967
1150.12980	0.89808
1148.07599	0.89672
1146.02219	0.89523
1143.96839	0.89326
1141.91458	0.89118
1139.86078	0.88926
1137.80698	0.88716
1135.75317	0.88488
1133.69937	0.88279
1131.64557	0.88067
1129.59176	0.87816
1127.53796	0.87529
1125.48416	0.87210
1123.43036	0.86865
1121.37655	0.86524
1119.32275	0.86201
1117.26895	0.85871
1115.21514	0.85494
1113.16134	0.85095
1111.10754	0.84758
1109.05373	0.84488
1106.99993	0.84230
1104.94613	0.83965
1102.89232	0.83729
1100.83852	0.83559
1098.78472	0.83448
1096.73091	0.83367
1094.67711	0.83273
1092.62331	0.83157
1090.56950	0.83061
1088.51570	0.83009
1086.46190	0.82979
1084.40809	0.82943
1082.35429	0.82876
1080.30049	0.82804
1078.24668	0.82787
1076.19288	0.82789
1074.13908	0.82748
1072.08528	0.82685
1070.03147	0.82607
1067.97767	0.82487
1065.92387	0.82302
1063.87006	0.82080
1061.81626	0.81886
1059.76246	0.81688
1057.70865	0.81437
1055.65485	0.81161
1053.60105	0.80847
1051.54724	0.80484
1049.49344	0.80106
1047.43964	0.79718
1045.38583	0.79323
1043.33203	0.78933
1041.27823	0.78512
1039.22442	0.78094
1037.17062	0.77784
1035.11682	0.77589
1033.06301	0.77440
1031.00921	0.77331
1028.95541	0.77322
1026.90160	0.77383
1024.84780	0.77440
1022.79400	0.77533
1020.74019	0.77636
1018.68639	0.77678
1016.63259	0.77674
1014.57879	0.77638
1012.52498	0.77594
1010.47118	0.77559
1008.41738	0.77544
1006.36357	0.77600
1004.30977	0.77751
1002.25597	0.77976
1000.20216	0.78274
998.14836	0.78649
996.09456	0.79095
994.04075	0.79586
991.98695	0.80080
989.93315	0.80582
987.87934	0.81089
985.82554	0.81580
983.77174	0.82084
981.71793	0.82627
979.66413	0.83156
977.61033	0.83590
975.55652	0.83954
973.50272	0.84387
971.44892	0.84909
969.39511	0.85398
967.34131	0.85812
965.28751	0.86183
963.23371	0.86538
961.17990	0.86880
959.12610	0.87171
957.07230	0.87420
955.01849	0.87653
952.96469	0.87874
950.91089	0.88110
948.85708	0.88314
946.80328	0.88450
944.74948	0.88613
942.69567	0.88791
940.64187	0.88909
938.58807	0.89050
936.53426	0.89250
934.48046	0.89418
932.42666	0.89520
930.37285	0.89592
928.31905	0.89659
926.26525	0.89756
924.21144	0.89834
922.15764	0.89802
920.10384	0.89712
918.05003	0.89625
915.99623	0.89490
913.94243	0.89320
911.88862	0.89256
909.83482	0.89388
907.78102	0.89674
905.72722	0.90038
903.67341	0.90424
901.61961	0.90810
899.56581	0.91170
897.51200	0.91452
895.45820	0.91673
893.40440	0.91897
891.35059	0.92130
889.29679	0.92353
887.24299	0.92523
885.18918	0.92609
883.13538	0.92701
881.08158	0.92813
879.02777	0.92892
876.97397	0.92964
874.92017	0.93014
872.86636	0.93077
870.81256	0.93223
868.75876	0.93400
866.70495	0.93564
864.65115	0.93721
862.59735	0.93838
860.54354	0.93901
858.48974	0.93989
856.43594	0.94140
854.38213	0.94261
852.32833	0.94306
850.27453	0.94308
848.22073	0.94286
846.16692	0.94321
844.11312	0.94396
842.05932	0.94401
840.00551	0.94362
837.95171	0.94325
835.89791	0.94260
833.84410	0.94194
831.79030	0.94193
829.73650	0.94202
827.68269	0.94163
825.62889	0.94152
823.57509	0.94209
821.52128	0.94253
819.46748	0.94236
817.41368	0.94208
815.35987	0.94185
813.30607	0.94048
811.25227	0.93789
809.19846	0.93574
807.14466	0.93434
805.09086	0.93203
803.03705	0.92789
800.98325	0.92387
798.92945	0.92192
796.87565	0.92149
794.82184	0.92177
792.76804	0.92218
790.71424	0.92192
788.66043	0.92190
786.60663	0.92270
784.55283	0.92287
782.49902	0.92189
780.44522	0.92069
778.39142	0.92010
776.33761	0.92014
774.28381	0.92051
772.23001	0.92104
770.17620	0.92113
768.12240	0.92031
766.06860	0.91927
764.01479	0.91867
761.96099	0.91797
759.90719	0.91696
757.85338	0.91696
755.79958	0.91804
753.74578	0.91816
751.69197	0.91743
749.63817	0.91756
747.58437	0.91785
745.53056	0.91724
743.47676	0.91664
741.42296	0.91658
739.36916	0.91643
737.31535	0.91494
735.26155	0.90826
733.20775	0.89116
731.15394	0.87070
729.10014	0.86492
727.04634	0.87284
724.99253	0.87634
722.93873	0.86439
720.88493	0.83801
718.83112	0.81625
716.77732	0.81870
714.72352	0.84042
712.66971	0.86463
710.61591	0.88090
708.56211	0.88938
706.50830	0.89420
704.45450	0.89708
702.40070	0.89823
700.34689	0.89858
698.29309	0.89843
696.23929	0.89758
694.18548	0.89694
692.13168	0.89734
690.07788	0.89826
688.02408	0.89895
685.97027	0.89957
683.91647	0.90038
681.86267	0.90089
679.80886	0.90087
677.75506	0.90093
675.70126	0.90101
673.64745	0.90131
671.59365	0.90268
669.53985	0.90422
667.48604	0.90365
665.43224	0.90154
663.37844	0.90028
661.32463	0.90097
659.27083	0.90221
657.21703	0.90188
655.16322	0.90072
653.10942	0.89919
651.05562	0.89712
649.00181	0.89535
646.94801	0.89457
644.89421	0.89465
642.84040	0.89495
640.78660	0.89534
638.73280	0.89637
636.67899	0.89803
634.62519	0.89848
632.57139	0.89702
630.51759	0.89618
628.46378	0.89714
626.40998	0.89815
624.35618	0.89790
622.30237	0.89686
620.24857	0.89581
618.19477	0.89506
616.14096	0.89431
614.08716	0.89176
612.03336	0.88765
609.97955	0.88443
607.92575	0.88247
605.87195	0.88110
603.81814	0.87911
601.76434	0.87553
599.71054	0.87243
597.65673	0.87127
595.60293	0.87116
593.54913	0.87225
591.49532	0.87438
589.44152	0.87509
587.38772	0.87426
585.33391	0.87395
583.28011	0.87314
581.22631	0.87066
579.17250	0.86806
577.11870	0.86669
575.06490	0.86659
573.01110	0.86733
570.95729	0.86807
568.90349	0.86771
566.84969	0.86648
564.79588	0.86575
562.74208	0.86655
560.68828	0.86765
558.63447	0.86724
556.58067	0.86543
554.52687	0.86287
552.47306	0.86050
550.41926	0.85826
548.36546	0.85447
546.31165	0.84883
544.25785	0.84444
542.20405	0.84202
540.15024	0.83837
538.09644	0.83363
536.04264	0.83031
533.98883	0.82955
531.93503	0.83023
529.88123	0.82998
527.82742	0.83023
525.77362	0.83274
523.71982	0.83514
521.66602	0.83683
519.61221	0.83943
517.55841	0.84195
515.50461	0.84197
513.45080	0.84116
511.39700	0.84307
509.34320	0.84623
507.28939	0.84660
505.23559	0.84483
503.18179	0.84400
501.12798	0.84533
499.07418	0.84777
497.02038	0.84886
494.96657	0.84779
492.91277	0.84618
490.85897	0.84567
488.80516	0.84560
486.75136	0.84322
484.69756	0.83761
482.64375	0.83136
480.58995	0.82582
478.53615	0.81982
476.48234	0.81320
474.42854	0.80779
472.37474	0.80307
470.32093	0.79672
468.26713	0.79144
466.21333	0.78899
464.15953	0.78727
462.10572	0.78673
460.05192	0.78910
457.99812	0.79300
455.94431	0.79655
453.89051	0.79997
451.83671	0.80364
449.78290	0.80893
447.72910	0.81598
445.67530	0.82013
443.62149	0.81932
441.56769	0.81702
439.51389	0.81720
437.46008	0.81832
435.40628	0.81359
433.35248	0.80635
431.29867	0.80342
429.24487	0.80285
427.19107	0.80437
425.13726	0.80741
423.08346	0.80896
421.02966	0.81013
418.97585	0.81336
416.92205	0.81717
414.86825	0.81936
412.81445	0.81965
410.76064	0.81893
408.70684	0.82097
406.65304	0.82516
404.59923	0.82493
402.54543	0.81938
400.49163	0.81922
398.43782	0.83299
