3996.71440	1.00640
3994.66059	1.00658
3992.60678	1.00624
3990.55297	1.00563
3988.49916	1.00561
3986.44535	1.00597
3984.39154	1.00587
3982.33773	1.00525
3980.28391	1.00480
3978.23010	1.00481
3976.17629	1.00508
3974.12248	1.00554
3972.06867	1.00586
3970.01486	1.00602
3967.96105	1.00642
3965.90724	1.00671
3963.85343	1.00644
3961.79962	1.00611
3959.74581	1.00603
3957.69200	1.00616
3955.63819	1.00628
3953.58438	1.00607
3951.53057	1.00607
3949.47676	1.00657
3947.42295	1.00682
3945.36914	1.00648
3943.31533	1.00591
3941.26152	1.00576
3939.20771	1.00632
3937.15390	1.00719
3935.10009	1.00733
3933.04628	1.00662
3930.99247	1.00626
3928.93866	1.00638
3926.88485	1.00636
3924.83104	1.00639
3922.77723	1.00640
3920.72342	1.00618
3918.66961	1.00603
3916.61580	1.00645
3914.56199	1.00707
3912.50818	1.00699
3910.45437	1.00646
3908.40056	1.00620
3906.34675	1.00602
3904.29294	1.00592
3902.23913	1.00661
3900.18532	1.00737
3898.13151	1.00729
3896.07770	1.00676
3894.02389	1.00615
3891.97008	1.00567
3889.91627	1.00558
3887.86246	1.00568
3885.80865	1.00566
3883.75484	1.00568
3881.70103	1.00630
3879.64722	1.00767
3877.59341	1.00831
3875.53960	1.00768
3873.48579	1.00686
3871.43198	1.00644
3869.37817	1.00636
3867.32436	1.00643
3865.27055	1.00649
3863.21674	1.00669
3861.16293	1.00692
3859.10912	1.00683
3857.05531	1.00624
3855.00150	1.00537
3852.94769	1.00545
3850.89388	1.00638
3848.84007	1.00690
3846.78626	1.00734
3844.73245	1.00794
3842.67864	1.00829
3840.62483	1.00818
3838.57102	1.00785
3836.51721	1.00717
3834.46340	1.00685
3832.40959	1.00726
3830.35578	1.00750
3828.30197	1.00731
3826.24816	1.00679
3824.19435	1.00575
3822.14054	1.00505
3820.08673	1.00576
3818.03292	1.00660
3815.97911	1.00659
3813.92530	1.00643
3811.87149	1.00647
3809.81768	1.00647
3807.76387	1.00657
3805.71006	1.00658
3803.65625	1.00613
3801.60244	1.00573
3799.54863	1.00551
3797.49482	1.00572
3795.44101	1.00674
3793.38720	1.00750
3791.33339	1.00723
3789.27958	1.00654
3787.22577	1.00615
3785.17196	1.00629
3783.11815	1.00648
3781.06434	1.00626
3779.01053	1.00610
3776.95672	1.00622
3774.90291	1.00625
3772.84910	1.00637
3770.79529	1.00673
3768.74148	1.00681
3766.68767	1.00660
3764.63386	1.00673
3762.58005	1.00710
3760.52624	1.00719
3758.47243	1.00700
3756.41862	1.00712
3754.36481	1.00765
3752.31100	1.00809
3750.25719	1.00785
3748.20338	1.00718
3746.14957	1.00664
3744.09576	1.00645
3742.04195	1.00662
3739.98814	1.00687
3737.93433	1.00680
3735.88052	1.00650
3733.82671	1.00666
3731.77290	1.00640
3729.71909	1.00587
3727.66528	1.00581
3725.61147	1.00569
3723.55766	1.00542
3721.50385	1.00567
3719.45004	1.00653
3717.39623	1.00703
3715.34242	1.00661
3713.28861	1.00594
3711.23480	1.00641
3709.18099	1.00762
3707.12718	1.00805
3705.07337	1.00808
3703.01956	1.00808
3700.96575	1.00804
3698.91194	1.00790
3696.85813	1.00752
3694.80432	1.00692
3692.75051	1.00618
3690.69670	1.00593
3688.64289	1.00630
3686.58907	1.00648
3684.53526	1.00648
3682.48145	1.00647
3680.42764	1.00630
3678.37383	1.00588
3676.32002	1.00574
3674.26621	1.00631
3672.21240	1.00650
3670.15859	1.00643
3668.10478	1.00697
3666.05097	1.00730
3663.99716	1.00646
3661.94335	1.00516
3659.88954	1.00474
3657.83573	1.00513
3655.78192	1.00547
3653.72811	1.00560
3651.67430	1.00591
3649.62049	1.00634
3647.56668	1.00611
3645.51287	1.00559
3643.45906	1.00544
3641.40525	1.00531
3639.35144	1.00496
3637.29763	1.00510
3635.24382	1.00605
3633.19001	1.00654
3631.13620	1.00610
3629.08239	1.00615
3627.02858	1.00703
3624.97477	1.00705
3622.92096	1.00641
3620.86715	1.00618
3618.81334	1.00640
3616.75953	1.00674
3614.70572	1.00738
3612.65191	1.00783
3610.59810	1.00749
3608.54429	1.00690
3606.49048	1.00644
3604.43667	1.00598
3602.38286	1.00588
3600.32905	1.00629
3598.27524	1.00668
3596.22143	1.00677
3594.16762	1.00698
3592.11381	1.00731
3590.06000	1.00738
3588.00619	1.00738
3585.95238	1.00737
3583.89857	1.00706
3581.84476	1.00668
3579.79095	1.00673
3577.73714	1.00715
3575.68333	1.00721
3573.62952	1.00659
3571.57571	1.00585
3569.52190	1.00576
3567.46809	1.00671
3565.41428	1.00742
3563.36047	1.00694
3561.30666	1.00648
3559.25285	1.00656
3557.19904	1.00687
3555.14523	1.00694
3553.09142	1.00641
3551.03761	1.00593
3548.98380	1.00628
3546.92999	1.00684
3544.87618	1.00682
3542.82237	1.00668
3540.76856	1.00698
3538.71475	1.00712
3536.66094	1.00664
3534.60713	1.00641
3532.55332	1.00672
3530.49951	1.00696
3528.44570	1.00681
3526.39189	1.00649
3524.33808	1.00656
3522.28427	1.00694
3520.23046	1.00699
3518.17665	1.00669
3516.12284	1.00653
3514.06903	1.00669
3512.01522	1.00678
3509.96141	1.00644
3507.90760	1.00579
3505.85379	1.00552
3503.79998	1.00603
3501.74617	1.00654
3499.69236	1.00634
3497.63855	1.00596
3495.58474	1.00607
3493.53093	1.00670
3491.47712	1.00698
3489.42331	1.00664
3487.36950	1.00639
3485.31569	1.00662
3483.26188	1.00674
3481.20807	1.00617
3479.15426	1.00546
3477.10045	1.00512
3475.04664	1.00495
3472.99283	1.00494
3470.93902	1.00522
3468.88521	1.00553
3466.83140	1.00543
3464.77759	1.00497
3462.72378	1.00463
3460.66997	1.00453
3458.61616	1.00439
3456.56235	1.00419
3454.50854	1.00413
3452.45473	1.00408
3450.40092	1.00400
3448.34711	1.00387
3446.29330	1.00335
3444.23949	1.00288
3442.18568	1.00292
3440.13187	1.00304
3438.07806	1.00314
3436.02425	1.00354
3433.97044	1.00424
3431.91663	1.00507
3429.86282	1.00547
3427.80901	1.00552
3425.75520	1.00588
3423.70139	1.00630
3421.64758	1.00613
3419.59377	1.00581
3417.53996	1.00596
3415.48615	1.00617
3413.43234	1.00619
3411.37853	1.00622
3409.32472	1.00641
3407.27091	1.00697
3405.21710	1.00731
3403.16329	1.00706
3401.10948	1.00682
3399.05567	1.00675
3397.00186	1.00679
3394.94805	1.00686
3392.89424	1.00650
3390.84042	1.00604
3388.78661	1.00610
3386.73280	1.00640
3384.67899	1.00662
3382.62518	1.00664
3380.57137	1.00659
3378.51756	1.00693
3376.46375	1.00711
3374.40994	1.00669
3372.35613	1.00638
3370.30232	1.00630
3368.24851	1.00617
3366.19470	1.00637
3364.14089	1.00692
3362.08708	1.00699
3360.03327	1.00674
3357.97946	1.00704
3355.92565	1.00745
3353.87184	1.00713
3351.81803	1.00646
3349.76422	1.00610
3347.71041	1.00609
3345.65660	1.00642
3343.60279	1.00706
3341.54898	1.00728
3339.49517	1.00661
3337.44136	1.00597
3335.38755	1.00586
3333.33374	1.00613
3331.27993	1.00677
3329.22612	1.00740
3327.17231	1.00785
3325.11850	1.00829
3323.06469	1.00856
3321.01088	1.00827
3318.95707	1.00780
3316.90326	1.00759
3314.84945	1.00724
3312.79564	1.00668
3310.74183	1.00621
3308.68802	1.00599
3306.63421	1.00577
3304.58040	1.00562
3302.52659	1.00599
3300.47278	1.00656
3298.41897	1.00664
3296.36516	1.00597
3294.31135	1.00533
3292.25754	1.00580
3290.20373	1.00671
3288.14992	1.00669
3286.09611	1.00608
3284.04230	1.00611
3281.98849	1.00650
3279.93468	1.00663
3277.88087	1.00681
3275.82706	1.00703
3273.77325	1.00695
3271.71944	1.00684
3269.66563	1.00704
3267.61182	1.00698
3265.55801	1.00636
3263.50420	1.00599
3261.45039	1.00639
3259.39658	1.00660
3257.34277	1.00627
3255.28896	1.00654
3253.23515	1.00731
3251.18134	1.00751
3249.12753	1.00725
3247.07372	1.00718
3245.01991	1.00712
3242.96610	1.00685
3240.91229	1.00670
3238.85848	1.00676
3236.80467	1.00695
3234.75086	1.00727
3232.69705	1.00767
3230.64324	1.00786
3228.58943	1.00755
3226.53562	1.00707
3224.48181	1.00689
3222.42800	1.00700
3220.37419	1.00717
3218.32038	1.00719
3216.26657	1.00699
3214.21276	1.00685
3212.15895	1.00711
3210.10514	1.00769
3208.05133	1.00791
3205.99752	1.00744
3203.94371	1.00678
3201.88990	1.00651
3199.83609	1.00696
3197.78228	1.00755
3195.72847	1.00765
3193.67466	1.00765
3191.62085	1.00763
3189.56704	1.00723
3187.51323	1.00682
3185.45942	1.00682
3183.40561	1.00699
3181.35180	1.00696
3179.29799	1.00694
3177.24418	1.00700
3175.19037	1.00687
3173.13656	1.00669
3171.08275	1.00664
3169.02894	1.00688
3166.97513	1.00726
3164.92132	1.00711
3162.86751	1.00655
3160.81370	1.00636
3158.75989	1.00667
3156.70608	1.00689
3154.65227	1.00698
3152.59846	1.00723
3150.54465	1.00716
3148.49084	1.00647
3146.43703	1.00591
3144.38322	1.00604
3142.32941	1.00636
3140.27560	1.00646
3138.22179	1.00648
3136.16798	1.00609
3134.11417	1.00574
3132.06036	1.00606
3130.00655	1.00642
3127.95274	1.00674
3125.89893	1.00730
3123.84512	1.00763
3121.79131	1.00739
3119.73750	1.00661
3117.68369	1.00575
3115.62988	1.00553
3113.57607	1.00603
3111.52226	1.00648
3109.46845	1.00630
3107.41464	1.00575
3105.36083	1.00562
3103.30702	1.00612
3101.25321	1.00641
3099.19940	1.00609
3097.14559	1.00544
3095.09177	1.00503
3093.03796	1.00534
3090.98415	1.00598
3088.93034	1.00628
3086.87653	1.00610
3084.82272	1.00577
3082.76891	1.00570
3080.71510	1.00589
3078.66129	1.00605
3076.60748	1.00593
3074.55367	1.00553
3072.49986	1.00523
3070.44605	1.00505
3068.39224	1.00494
3066.33843	1.00510
3064.28462	1.00514
3062.23081	1.00496
3060.17700	1.00503
3058.12319	1.00522
3056.06938	1.00535
3054.01557	1.00546
3051.96176	1.00520
3049.90795	1.00458
3047.85414	1.00427
3045.80033	1.00446
3043.74652	1.00443
3041.69271	1.00400
3039.63890	1.00388
3037.58509	1.00404
3035.53128	1.00418
3033.47747	1.00432
3031.42366	1.00416
3029.36985	1.00395
3027.31604	1.00405
3025.26223	1.00409
3023.20842	1.00394
3021.15461	1.00376
3019.10080	1.00338
3017.04699	1.00275
3014.99318	1.00205
3012.93937	1.00134
3010.88556	1.00089
3008.83175	1.00087
3006.77794	1.00095
3004.72413	1.00066
3002.67032	0.99987
3000.61651	0.99900
2998.56270	0.99823
2996.50889	0.99710
2994.45508	0.99554
2992.40127	0.99376
2990.34746	0.99178
2988.29365	0.98991
2986.23984	0.98818
2984.18603	0.98579
2982.13222	0.98260
2980.07841	0.97919
2978.02460	0.97555
2975.97079	0.97145
2973.91698	0.96658
2971.86317	0.96083
2969.80936	0.95465
2967.75555	0.94770
2965.70174	0.93939
2963.64793	0.93023
2961.59412	0.92052
2959.54031	0.91035
2957.48650	0.90017
2955.43269	0.89049
2953.37888	0.88170
2951.32507	0.87417
2949.27126	0.86775
2947.21745	0.86195
2945.16364	0.85745
2943.10983	0.85562
2941.05602	0.85607
2939.00221	0.85766
2936.94840	0.86073
2934.89459	0.86567
2932.84078	0.87183
2930.78697	0.87819
2928.73316	0.88412
2926.67935	0.88982
2924.62554	0.89553
2922.57173	0.90100
2920.51792	0.90570
2918.46411	0.90964
2916.41030	0.91326
2914.35649	0.91723
2912.30268	0.92159
2910.24887	0.92572
2908.19506	0.92981
2906.14125	0.93385
2904.08744	0.93731
2902.03363	0.94009
2899.97982	0.94169
2897.92601	0.94185
2895.87220	0.94166
2893.81839	0.94229
2891.76458	0.94454
2889.71077	0.94868
2887.65696	0.95346
2885.60315	0.95742
2883.54934	0.95938
2881.49553	0.95844
2879.44172	0.95461
2877.38791	0.94824
2875.33410	0.94007
2873.28029	0.93123
2871.22648	0.92310
2869.17267	0.91729
2867.11886	0.91489
2865.06505	0.91627
2863.01124	0.92070
2860.95743	0.92649
2858.90362	0.93293
2856.84981	0.94065
2854.79600	0.94965
2852.74219	0.95864
2850.68838	0.96636
2848.63457	0.97281
2846.58076	0.97827
2844.52695	0.98288
2842.47314	0.98688
2840.41933	0.99003
2838.36552	0.99224
2836.31171	0.99377
2834.25790	0.99470
2832.20409	0.99531
2830.15028	0.99602
2828.09647	0.99685
2826.04266	0.99755
2823.98885	0.99795
2821.93504	0.99807
2819.88123	0.99830
2817.82742	0.99904
2815.77361	1.00012
2813.71980	1.00110
2811.66599	1.00168
2809.61218	1.00192
2807.55837	1.00206
2805.50456	1.00227
2803.45075	1.00268
2801.39693	1.00308
2799.34312	1.00342
2797.28931	1.00364
2795.23550	1.00353
2793.18169	1.00343
2791.12788	1.00372
2789.07407	1.00422
2787.02026	1.00470
2784.96645	1.00497
2782.91264	1.00481
2780.85883	1.00445
2778.80502	1.00437
2776.75121	1.00454
2774.69740	1.00469
2772.64359	1.00475
2770.58978	1.00471
2768.53597	1.00458
2766.48216	1.00433
2764.42835	1.00411
2762.37454	1.00430
2760.32073	1.00469
2758.26692	1.00499
2756.21311	1.00498
2754.15930	1.00482
2752.10549	1.00502
2750.05168	1.00536
2747.99787	1.00552
2745.94406	1.00573
2743.89025	1.00600
2741.83644	1.00589
2739.78263	1.00556
2737.72882	1.00560
2735.67501	1.00582
2733.62120	1.00594
2731.56739	1.00619
2729.51358	1.00650
2727.45977	1.00644
2725.40596	1.00591
2723.35215	1.00536
2721.29834	1.00511
2719.24453	1.00511
2717.19072	1.00526
2715.13691	1.00561
2713.08310	1.00610
2711.02929	1.00646
2708.97548	1.00642
2706.92167	1.00612
2704.86786	1.00601
2702.81405	1.00612
2700.76024	1.00598
2698.70643	1.00554
2696.65262	1.00536
2694.59881	1.00567
2692.54500	1.00605
2690.49119	1.00607
2688.43738	1.00588
2686.38357	1.00583
2684.32976	1.00587
2682.27595	1.00573
2680.22214	1.00556
2678.16833	1.00555
2676.11452	1.00568
2674.06071	1.00577
2672.00690	1.00591
2669.95309	1.00619
2667.89928	1.00616
2665.84547	1.00581
2663.79166	1.00574
2661.73785	1.00595
2659.68404	1.00610
2657.63023	1.00607
2655.57642	1.00578
2653.52261	1.00570
2651.46880	1.00602
2649.41499	1.00604
2647.36118	1.00553
2645.30737	1.00516
2643.25356	1.00535
2641.19975	1.00605
2639.14594	1.00670
2637.09213	1.00681
2635.03832	1.00678
2632.98451	1.00688
2630.93070	1.00697
2628.87689	1.00737
2626.82308	1.00803
2624.76927	1.00794
2622.71546	1.00731
2620.66165	1.00720
2618.60784	1.00723
2616.55403	1.00689
2614.50022	1.00660
2612.44641	1.00676
2610.39260	1.00708
2608.33879	1.00699
2606.28498	1.00679
2604.23117	1.00706
2602.17736	1.00736
2600.12355	1.00732
2598.06974	1.00745
2596.01593	1.00780
2593.96212	1.00795
2591.90831	1.00777
2589.85450	1.00756
2587.80069	1.00778
2585.74688	1.00820
2583.69307	1.00805
2581.63926	1.00761
2579.58545	1.00782
2577.53164	1.00828
2575.47783	1.00801
2573.42402	1.00769
2571.37021	1.00791
2569.31640	1.00779
2567.26259	1.00717
2565.20878	1.00680
2563.15497	1.00684
2561.10116	1.00681
2559.04735	1.00668
2556.99354	1.00683
2554.93973	1.00726
2552.88592	1.00770
2550.83211	1.00812
2548.77830	1.00861
2546.72449	1.00854
2544.67068	1.00804
2542.61687	1.00813
2540.56306	1.00861
2538.50925	1.00853
2536.45544	1.00783
2534.40163	1.00726
2532.34782	1.00741
2530.29401	1.00777
2528.24020	1.00749
2526.18639	1.00694
2524.13258	1.00687
2522.07877	1.00729
2520.02496	1.00783
2517.97115	1.00842
2515.91734	1.00865
2513.86353	1.00787
2511.80972	1.00716
2509.75591	1.00730
2507.70210	1.00744
2505.64828	1.00764
2503.59447	1.00809
2501.54066	1.00839
2499.48685	1.00872
2497.43304	1.00897
2495.37923	1.00871
2493.32542	1.00826
2491.27161	1.00818
2489.21780	1.00842
2487.16399	1.00875
2485.11018	1.00920
2483.05637	1.00956
2481.00256	1.00935
2478.94875	1.00853
2476.89494	1.00742
2474.84113	1.00667
2472.78732	1.00684
2470.73351	1.00727
2468.67970	1.00753
2466.62589	1.00796
2464.57208	1.00836
2462.51827	1.00837
2460.46446	1.00823
2458.41065	1.00863
2456.35684	1.00920
2454.30303	1.00907
2452.24922	1.00866
2450.19541	1.00860
2448.14160	1.00858
2446.08779	1.00844
2444.03398	1.00823
2441.98017	1.00819
2439.92636	1.00859
2437.87255	1.00916
2435.81874	1.00954
2433.76493	1.00958
2431.71112	1.00926
2429.65731	1.00860
2427.60350	1.00795
2425.54969	1.00791
2423.49588	1.00830
2421.44207	1.00831
2419.38826	1.00775
2417.33445	1.00745
2415.28064	1.00766
2413.22683	1.00810
2411.17302	1.00850
2409.11921	1.00831
2407.06540	1.00770
2405.01159	1.00742
2402.95778	1.00746
2400.90397	1.00759
2398.85016	1.00799
2396.79635	1.00843
2394.74254	1.00844
2392.68873	1.00824
2390.63492	1.00807
2388.58111	1.00808
2386.52730	1.00851
2384.47349	1.00900
2382.41968	1.00914
2380.36587	1.00885
2378.31206	1.00852
2376.25825	1.00880
2374.20444	1.00897
2372.15063	1.00856
2370.09682	1.00830
2368.04301	1.00789
2365.98920	1.00718
2363.93539	1.00655
2361.88158	1.00625
2359.82777	1.00685
2357.77396	1.00729
2355.72015	1.00680
2353.66634	1.00670
2351.61253	1.00727
2349.55872	1.00757
2347.50491	1.00723
2345.45110	1.00700
2343.39729	1.00773
2341.34348	1.00852
2339.28967	1.00862
2337.23586	1.00833
2335.18205	1.00749
2333.12824	1.00654
2331.07443	1.00627
2329.02062	1.00644
2326.96681	1.00628
2324.91300	1.00560
2322.85919	1.00520
2320.80538	1.00575
2318.75157	1.00635
2316.69776	1.00636
2314.64395	1.00662
2312.59014	1.00680
2310.53633	1.00660
2308.48252	1.00692
2306.42871	1.00754
2304.37490	1.00780
2302.32109	1.00751
2300.26728	1.00698
2298.21347	1.00687
2296.15966	1.00713
2294.10585	1.00735
2292.05204	1.00737
2289.99823	1.00696
2287.94442	1.00625
2285.89061	1.00596
2283.83680	1.00654
2281.78299	1.00743
2279.72918	1.00722
2277.67537	1.00596
2275.62156	1.00576
2273.56775	1.00717
2271.51394	1.00878
2269.46013	1.00945
2267.40632	1.00900
2265.35251	1.00813
2263.29870	1.00711
2261.24489	1.00626
2259.19108	1.00647
2257.13727	1.00721
2255.08346	1.00769
2253.02965	1.00807
2250.97584	1.00795
2248.92203	1.00763
2246.86822	1.00846
2244.81441	1.00954
2242.76060	1.00929
2240.70679	1.00853
2238.65298	1.00801
2236.59917	1.00755
2234.54536	1.00660
2232.49155	1.00611
2230.43774	1.00759
2228.38393	1.00951
2226.33012	1.01031
2224.27631	1.00991
2222.22250	1.00847
2220.16869	1.00724
2218.11488	1.00682
2216.06107	1.00707
2214.00726	1.00835
2211.95344	1.00971
2209.89963	1.00992
2207.84582	1.00974
2205.79201	1.00981
2203.73820	1.00928
2201.68439	1.00884
2199.63058	1.00993
2197.57677	1.01075
2195.52296	1.00981
2193.46915	1.00872
2191.41534	1.00729
2189.36153	1.00505
2187.30772	1.00502
2185.25391	1.00713
2183.20010	1.00805
2181.14629	1.00833
2179.09248	1.00745
2177.03867	1.00420
2174.98486	1.00261
2172.93105	1.00462
2170.87724	1.00710
2168.82343	1.00810
2166.76962	1.00814
2164.71581	1.00784
2162.66200	1.00635
2160.60819	1.00461
2158.55438	1.00579
2156.50057	1.00810
2154.44676	1.00893
2152.39295	1.00977
2150.33914	1.01029
2148.28533	1.00890
2146.23152	1.00630
2144.17771	1.00499
2142.12390	1.00497
2140.07009	1.00483
2138.01628	1.00564
2135.96247	1.00746
2133.90866	1.00838
2131.85485	1.00823
2129.80104	1.00823
2127.74723	1.00848
2125.69342	1.00818
2123.63961	1.00707
2121.58580	1.00644
2119.53199	1.00763
2117.47818	1.00867
2115.42437	1.00787
2113.37056	1.00688
2111.31675	1.00670
2109.26294	1.00658
2107.20913	1.00668
2105.15532	1.00703
2103.10151	1.00725
2101.04770	1.00742
2098.99389	1.00727
2096.94008	1.00751
2094.88627	1.00833
2092.83246	1.00889
2090.77865	1.00919
2088.72484	1.00851
2086.67103	1.00667
2084.61722	1.00554
2082.56341	1.00601
2080.50960	1.00702
2078.45579	1.00721
2076.40198	1.00677
2074.34817	1.00659
2072.29436	1.00650
2070.24055	1.00659
2068.18674	1.00762
2066.13293	1.00869
2064.07912	1.00888
2062.02531	1.00881
2059.97150	1.00809
2057.91769	1.00664
2055.86388	1.00592
2053.81007	1.00647
2051.75626	1.00746
2049.70245	1.00771
2047.64864	1.00665
2045.59483	1.00444
2043.54102	1.00273
2041.48721	1.00325
2039.43340	1.00476
2037.37959	1.00556
2035.32578	1.00600
2033.27197	1.00760
2031.21816	1.00981
2029.16435	1.00979
2027.11054	1.00825
2025.05673	1.00808
2023.00292	1.00825
2020.94911	1.00724
2018.89530	1.00680
2016.84149	1.00699
2014.78768	1.00606
2012.73387	1.00374
2010.68006	1.00254
2008.62625	1.00466
2006.57244	1.00783
2004.51863	1.00944
2002.46482	1.00988
2000.41101	1.01042
1998.35720	1.01028
1996.30339	1.00939
1994.24958	1.00805
1992.19577	1.00609
1990.14196	1.00554
1988.08815	1.00580
1986.03434	1.00606
1983.98053	1.00690
1981.92672	1.00685
1979.87291	1.00692
1977.81910	1.00801
1975.76529	1.00799
1973.71148	1.00786
1971.65767	1.00910
1969.60386	1.01029
1967.55005	1.00976
1965.49624	1.00770
1963.44243	1.00649
1961.38862	1.00673
1959.33481	1.00724
1957.28100	1.00785
1955.22719	1.00862
1953.17338	1.00944
1951.11957	1.00935
1949.06576	1.00732
1947.01195	1.00494
1944.95814	1.00511
1942.90433	1.00759
1940.85052	1.00889
1938.79671	1.00781
1936.74290	1.00700
1934.68909	1.00793
1932.63528	1.00866
1930.58147	1.00799
1928.52766	1.00644
1926.47385	1.00517
1924.42004	1.00554
1922.36623	1.00677
1920.31242	1.00729
1918.25861	1.00726
1916.20479	1.00721
1914.15098	1.00703
1912.09717	1.00705
1910.04336	1.00726
1907.98955	1.00733
1905.93574	1.00732
1903.88193	1.00732
1901.82812	1.00777
1899.77431	1.00839
1897.72050	1.00800
1895.66669	1.00740
1893.61288	1.00777
1891.55907	1.00778
1889.50526	1.00708
1887.45145	1.00666
1885.39764	1.00613
1883.34383	1.00586
1881.29002	1.00711
1879.23621	1.00837
1877.18240	1.00785
1875.12859	1.00659
1873.07478	1.00593
1871.02097	1.00623
1868.96716	1.00680
1866.91335	1.00672
1864.85954	1.00635
1862.80573	1.00633
1860.75192	1.00653
1858.69811	1.00676
1856.64430	1.00685
1854.59049	1.00667
1852.53668	1.00620
1850.48287	1.00530
1848.42906	1.00433
1846.37525	1.00372
1844.32144	1.00308
1842.26763	1.00259
1840.21382	1.00293
1838.16001	1.00357
1836.10620	1.00380
1834.05239	1.00354
1831.99858	1.00322
1829.94477	1.00322
1827.89096	1.00310
1825.83715	1.00254
1823.78334	1.00227
1821.72953	1.00248
1819.67572	1.00252
1817.62191	1.00205
1815.56810	1.00133
1813.51429	1.00088
1811.46048	1.00065
1809.40667	1.00006
1807.35286	0.99923
1805.29905	0.99868
1803.24524	0.99839
1801.19143	0.99801
1799.13762	0.99729
1797.08381	0.99636
1795.03000	0.99537
1792.97619	0.99426
1790.92238	0.99320
1788.86857	0.99234
1786.81476	0.99160
1784.76095	0.99057
1782.70714	0.98911
1780.65333	0.98753
1778.59952	0.98642
1776.54571	0.98592
1774.49190	0.98542
1772.43809	0.98441
1770.38428	0.98272
1768.33047	0.98092
1766.27666	0.97937
1764.22285	0.97803
1762.16904	0.97639
1760.11523	0.97422
1758.06142	0.97129
1756.00761	0.96705
1753.95380	0.96153
1751.89999	0.95381
1749.84618	0.94176
1747.79237	0.92453
1745.73856	0.90202
1743.68475	0.87332
1741.63094	0.83888
1739.57713	0.79857
1737.52332	0.75889
1735.46951	0.71763
1733.41570	0.65977
1731.36189	0.60044
1729.30808	0.53947
1727.25427	0.46043
1725.20046	0.37402
1723.14665	0.31010
1721.09284	0.29077
1719.03903	0.31451
1716.98522	0.37865
1714.93141	0.45789
1712.87760	0.53074
1710.82379	0.59667
1708.76998	0.65561
1706.71617	0.70803
1704.66236	0.75123
1702.60855	0.78111
1700.55474	0.80824
1698.50093	0.83188
1696.44712	0.84674
1694.39331	0.85909
1692.33950	0.86852
1690.28569	0.87761
1688.23188	0.88771
1686.17807	0.89835
1684.12426	0.91305
1682.07045	0.92751
1680.01664	0.93761
1677.96283	0.94618
1675.90902	0.95433
1673.85521	0.96193
1671.80140	0.96769
1669.74759	0.97250
1667.69378	0.97646
1665.63997	0.97901
1663.58616	0.98139
1661.53235	0.98381
1659.47854	0.98566
1657.42473	0.98692
1655.37092	0.98797
1653.31711	0.98952
1651.26330	0.99094
1649.20949	0.99138
1647.15568	0.99167
1645.10187	0.99221
1643.04806	0.99275
1640.99425	0.99321
1638.94044	0.99351
1636.88663	0.99373
1634.83282	0.99377
1632.77901	0.99394
1630.72520	0.99459
1628.67139	0.99560
1626.61758	0.99657
1624.56377	0.99742
1622.50996	0.99798
1620.45614	0.99778
1618.40233	0.99736
1616.34852	0.99760
1614.29471	0.99841
1612.24090	0.99903
1610.18709	0.99955
1608.13328	1.00002
1606.07947	1.00037
1604.02566	1.00090
1601.97185	1.00147
1599.91804	1.00162
1597.86423	1.00153
1595.81042	1.00169
1593.75661	1.00214
1591.70280	1.00251
1589.64899	1.00240
1587.59518	1.00218
1585.54137	1.00211
1583.48756	1.00198
1581.43375	1.00188
1579.37994	1.00188
1577.32613	1.00210
1575.27232	1.00248
1573.21851	1.00253
1571.16470	1.00244
1569.11089	1.00248
1567.05708	1.00259
1565.00327	1.00275
1562.94946	1.00286
1560.89565	1.00276
1558.84184	1.00264
1556.78803	1.00277
1554.73422	1.00274
1552.68041	1.00234
1550.62660	1.00193
1548.57279	1.00192
1546.51898	1.00202
1544.46517	1.00172
1542.41136	1.00106
1540.35755	1.00071
1538.30374	1.00084
1536.24993	1.00084
1534.19612	1.00090
1532.14231	1.00102
1530.08850	1.00100
1528.03469	1.00123
1525.98088	1.00156
1523.92707	1.00144
1521.87326	1.00076
1519.81945	0.99994
1517.76564	0.99945
1515.71183	0.99929
1513.65802	0.99918
1511.60421	0.99892
1509.55040	0.99852
1507.49659	0.99782
1505.44278	0.99710
1503.38897	0.99658
1501.33516	0.99615
1499.28135	0.99571
1497.22754	0.99493
1495.17373	0.99350
1493.11992	0.99171
1491.06611	0.98911
1489.01230	0.98426
1486.95849	0.97658
1484.90468	0.96635
1482.85087	0.95275
1480.79706	0.93553
1478.74325	0.91948
1476.68944	0.90828
1474.63563	0.89872
1472.58182	0.88816
1470.52801	0.88539
1468.47420	0.89174
1466.42039	0.89847
1464.36658	0.90140
1462.31277	0.90297
1460.25896	0.90625
1458.20515	0.91405
1456.15134	0.92613
1454.09753	0.93419
1452.04372	0.93884
1449.98991	0.94285
1447.93610	0.94647
1445.88229	0.94864
1443.82848	0.94862
1441.77467	0.94720
1439.72086	0.94553
1437.66705	0.94448
1435.61324	0.94533
1433.55943	0.94724
1431.50562	0.94774
1429.45181	0.94457
1427.39800	0.93632
1425.34419	0.92193
1423.29038	0.90219
1421.23657	0.88339
1419.18276	0.87063
1417.12895	0.86886
1415.07514	0.87758
1413.02133	0.89326
1410.96752	0.91235
1408.91371	0.92847
1406.85990	0.93731
1404.80609	0.93840
1402.75228	0.93328
1400.69847	0.92462
1398.64466	0.91468
1396.59085	0.90705
1394.53704	0.90422
1392.48323	0.90640
1390.42942	0.91222
1388.37561	0.92052
1386.32180	0.92825
1384.26799	0.93082
1382.21418	0.92761
1380.16037	0.92021
1378.10656	0.91123
1376.05275	0.90326
1373.99894	0.89601
1371.94513	0.88696
1369.89132	0.87438
1367.83751	0.85868
1365.78370	0.84328
1363.72989	0.83067
1361.67608	0.82398
1359.62227	0.82692
1357.56846	0.83789
1355.51465	0.85300
1353.46084	0.86908
1351.40703	0.88460
1349.35322	0.89909
1347.29941	0.91198
1345.24560	0.92270
1343.19179	0.93091
1341.13798	0.93679
1339.08417	0.94083
1337.03036	0.94331
1334.97655	0.94469
1332.92274	0.94512
1330.86893	0.94436
1328.81512	0.94252
1326.76130	0.94023
1324.70749	0.93808
1322.65368	0.93636
1320.59987	0.93502
1318.54606	0.93345
1316.49225	0.93105
1314.43844	0.92776
1312.38463	0.92350
1310.33082	0.91798
1308.27701	0.91071
1306.22320	0.90144
1304.16939	0.88997
1302.11558	0.87608
1300.06177	0.85997
1298.00796	0.84223
1295.95415	0.82508
1293.90034	0.81477
1291.84653	0.81796
1289.79272	0.83337
1287.73891	0.85249
1285.68510	0.86815
1283.63129	0.87828
1281.57748	0.88405
1279.52367	0.88725
1277.46986	0.88933
1275.41605	0.89087
1273.36224	0.89091
1271.30843	0.88804
1269.25462	0.88179
1267.20081	0.87343
1265.14700	0.86647
1263.09319	0.86306
1261.03938	0.86090
1258.98557	0.85736
1256.93176	0.85179
1254.87795	0.84402
1252.82414	0.83294
1250.77033	0.81593
1248.71652	0.79039
1246.66271	0.75642
1244.60890	0.71768
1242.55509	0.68060
1240.50128	0.65329
1238.44747	0.64292
1236.39366	0.65291
1234.33985	0.68128
1232.28604	0.71932
1230.23223	0.75609
1228.17842	0.78530
1226.12461	0.80640
1224.07080	0.82105
1222.01699	0.83069
1219.96318	0.83658
1217.90937	0.84015
1215.85556	0.84227
1213.80175	0.84357
1211.74794	0.84429
1209.69413	0.84382
1207.64032	0.84145
1205.58651	0.83690
1203.53270	0.83005
1201.47889	0.82056
1199.42508	0.80735
1197.37127	0.78903
1195.31746	0.76535
1193.26365	0.73825
1191.20984	0.71022
1189.15603	0.68199
1187.10222	0.65385
1185.04841	0.62733
1182.99460	0.60339
1180.94079	0.58174
1178.88698	0.56255
1176.83317	0.54555
1174.77936	0.53029
1172.72555	0.51806
1170.67174	0.50999
1168.61793	0.50483
1166.56412	0.49984
1164.51031	0.49380
1162.45650	0.48809
1160.40269	0.48576
1158.34888	0.49038
1156.29507	0.50442
1154.24126	0.52822
1152.18745	0.56003
1150.13364	0.59730
1148.07983	0.63734
1146.02602	0.67768
1143.97221	0.71658
1141.91840	0.75250
1139.86459	0.78414
1137.81078	0.81120
1135.75697	0.83412
1133.70316	0.85341
1131.64935	0.86949
1129.59554	0.88262
1127.54173	0.89296
1125.48792	0.90047
1123.43411	0.90473
1121.38030	0.90491
1119.32649	0.89983
1117.27268	0.88784
1115.21887	0.86757
1113.16506	0.83954
1111.11125	0.80805
1109.05744	0.78199
1107.00363	0.77047
1104.94982	0.77473
1102.89601	0.78745
1100.84220	0.80037
1098.78839	0.80929
1096.73458	0.81434
1094.68077	0.81817
1092.62696	0.82298
1090.57315	0.82927
1088.51934	0.83704
1086.46553	0.84637
1084.41172	0.85706
1082.35791	0.86822
1080.30410	0.87830
1078.25029	0.88568
1076.19648	0.88916
1074.14267	0.88807
1072.08886	0.88203
1070.03505	0.87048
1067.98124	0.85594
1065.92743	0.84567
1063.87362	0.84445
1061.81981	0.84978
1059.76600	0.85565
1057.71219	0.85568
1055.65838	0.84539
1053.60457	0.82432
1051.55076	0.79467
1049.49695	0.76087
1047.44314	0.73218
1045.38933	0.71888
1043.33552	0.72221
1041.28171	0.73705
1039.22790	0.75928
1037.17409	0.78497
1035.12028	0.80992
1033.06647	0.83102
1031.01265	0.84753
1028.95884	0.86115
1026.90503	0.87308
1024.85122	0.88315
1022.79741	0.89121
1020.74360	0.89758
1018.68979	0.90285
1016.63598	0.90793
1014.58217	0.91308
1012.52836	0.91725
1010.47455	0.92034
1008.42074	0.92316
1006.36693	0.92555
1004.31312	0.92746
1002.25931	0.92881
1000.20550	0.92914
998.15169	0.92886
996.09788	0.92845
994.04407	0.92795
991.99026	0.92757
989.93645	0.92713
987.88264	0.92638
985.82883	0.92487
983.77502	0.92176
981.72121	0.91666
979.66740	0.90990
977.61359	0.90241
975.55978	0.89536
973.50597	0.88852
971.45216	0.88048
969.39835	0.86983
967.34454	0.85391
965.29073	0.83066
963.23692	0.80505
961.18311	0.78969
959.12930	0.79278
957.07549	0.81003
955.02168	0.83224
952.96787	0.85357
950.91406	0.87220
948.86025	0.88748
946.80644	0.89923
944.75263	0.90742
942.69882	0.91061
940.64501	0.90688
938.59120	0.89623
936.53739	0.88207
934.48358	0.87082
932.42977	0.86877
930.37596	0.87731
928.32215	0.89212
926.26834	0.90791
924.21453	0.92113
922.16072	0.93021
920.10691	0.93516
918.05310	0.93643
915.99929	0.93524
913.94548	0.93381
911.89167	0.93430
909.83786	0.93790
907.78405	0.94363
905.73024	0.94919
903.67643	0.95340
901.62262	0.95662
899.56881	0.95942
897.51500	0.96194
895.46119	0.96441
893.40738	0.96639
891.35357	0.96731
889.29976	0.96766
887.24595	0.96777
885.19214	0.96768
883.13833	0.96761
881.08452	0.96760
879.03071	0.96786
876.97690	0.96875
874.92309	0.97003
872.86928	0.97097
870.81547	0.97093
868.76166	0.97045
866.70785	0.97087
864.65404	0.97242
862.60023	0.97362
860.54642	0.97340
858.49261	0.97225
856.43880	0.97109
854.38499	0.96974
852.33118	0.96783
850.27737	0.96603
848.22356	0.96373
846.16975	0.95787
844.11594	0.94561
842.06213	0.93028
840.00832	0.92266
837.95451	0.92915
835.90070	0.94446
833.84689	0.95953
831.79308	0.96987
829.73927	0.97581
827.68546	0.97933
825.63165	0.98114
823.57784	0.98096
821.52403	0.97954
819.47022	0.97795
817.41641	0.97673
815.36260	0.97557
813.30879	0.97418
811.25498	0.97371
809.20117	0.97493
807.14736	0.97692
805.09355	0.97840
803.03974	0.97890
800.98593	0.97890
798.93212	0.97904
796.87831	0.97937
794.82450	0.97969
792.77069	0.97996
790.71688	0.97971
788.66307	0.97848
786.60926	0.97686
784.55545	0.97577
782.50164	0.97441
780.44783	0.97123
778.39402	0.96591
776.34021	0.95972
774.28640	0.95602
772.23259	0.95720
770.17878	0.96167
768.12497	0.96632
766.07116	0.96992
764.01735	0.97230
761.96354	0.97334
759.90973	0.97311
757.85592	0.97122
755.80211	0.96806
753.74830	0.96471
751.69449	0.96073
749.64068	0.95457
747.58687	0.94551
745.53306	0.93356
743.47925	0.91762
741.42544	0.89449
739.37163	0.86274
737.31781	0.82820
735.26400	0.79867
733.21019	0.77515
731.15638	0.75876
729.10257	0.76129
727.04876	0.79230
724.99495	0.84074
722.94114	0.88387
720.88733	0.90904
718.83352	0.91836
716.77971	0.91817
714.72590	0.91268
712.67209	0.90516
710.61828	0.90014
708.56447	0.90141
706.51066	0.90935
704.45685	0.92078
702.40304	0.93189
700.34923	0.94155
698.29542	0.94968
696.24161	0.95629
694.18780	0.96203
692.13399	0.96662
690.08018	0.97013
688.02637	0.97348
685.97256	0.97661
683.91875	0.97911
681.86494	0.98092
679.81113	0.98183
677.75732	0.98199
675.70351	0.98212
673.64970	0.98219
671.59589	0.98164
669.54208	0.98196
667.48827	0.98489
665.43446	0.98622
663.38065	0.98512
661.32684	0.98401
659.27303	0.98352
657.21922	0.98289
655.16541	0.98227
653.11160	0.98190
651.05779	0.98171
649.00398	0.98197
646.95017	0.98259
644.89636	0.98253
642.84255	0.98140
640.78874	0.98046
638.73493	0.98055
636.68112	0.98053
634.62731	0.97925
632.57350	0.97837
630.51969	0.97938
628.46588	0.98089
626.41207	0.98104
624.35826	0.97956
622.30445	0.97681
620.25064	0.97322
618.19683	0.97029
616.14302	0.96990
614.08921	0.97156
612.03540	0.97232
609.98159	0.97071
607.92778	0.96795
605.87397	0.96598
603.82016	0.96612
601.76635	0.96649
599.71254	0.96351
597.65873	0.95820
595.60492	0.95313
593.55111	0.94825
591.49730	0.94330
589.44349	0.93737
587.38968	0.93130
585.33587	0.92809
583.28206	0.92755
581.22825	0.92744
579.17444	0.92891
577.12063	0.93442
575.06682	0.94267
573.01301	0.95066
570.95920	0.95789
568.90539	0.96431
566.85158	0.96922
564.79777	0.97317
562.74396	0.97579
560.69015	0.97613
558.63634	0.97669
556.58253	0.97932
554.52872	0.98074
552.47491	0.97981
550.42110	0.97960
548.36729	0.98092
546.31348	0.98194
544.25967	0.98119
542.20586	0.97924
540.15205	0.97698
538.09824	0.97506
536.04443	0.97493
533.99062	0.97549
531.93681	0.97421
529.88300	0.97111
527.82919	0.96652
525.77538	0.96045
523.72157	0.95505
521.66776	0.95333
519.61395	0.95637
517.56014	0.96182
515.50633	0.96615
513.45252	0.96775
511.39871	0.96792
509.34490	0.96906
507.29109	0.96984
505.23728	0.96861
503.18347	0.96811
501.12966	0.96952
499.07585	0.96953
497.02204	0.96731
494.96823	0.96632
492.91442	0.96907
490.86061	0.97288
488.80680	0.97360
486.75299	0.97238
484.69918	0.97150
482.64537	0.96986
480.59156	0.96673
478.53775	0.96217
476.48394	0.95893
474.43013	0.96099
472.37632	0.96527
470.32251	0.96578
468.26870	0.96545
466.21489	0.96796
464.16108	0.96990
462.10727	0.96760
460.05346	0.96102
457.99965	0.94852
455.94584	0.92686
453.89203	0.90410
451.83822	0.89489
449.78441	0.90507
447.73060	0.92490
445.67679	0.94138
443.62298	0.95050
441.56916	0.95278
439.51535	0.95104
437.46154	0.95078
435.40773	0.95125
433.35392	0.95172
431.30011	0.95357
429.24630	0.95476
427.19249	0.95404
425.13868	0.95263
423.08487	0.95120
421.03106	0.95132
418.97725	0.95994
416.92344	0.97176
414.86963	0.97267
412.81582	0.96695
410.76201	0.96055
408.70820	0.95360
406.65439	0.94838
404.60058	0.95020
402.54677	0.95410
400.49296	0.95363
398.43915	0.95516
